id,lsl_ts,unix_ts,ambient,ir,red
20334,90400.52069831666,1671368720.232,536,118796,75091
20334,90400.52069831666,1671368720.232,536,118796,75091
20335,90400.52349783333,1671368720.232,516,135477,77381
20335,90400.52349783333,1671368720.232,516,135477,77381
20336,90400.52629735,1671368720.232,512,135468,77390
20336,90400.52629735,1671368720.232,512,135468,77390
20337,90400.52909686667,1671368720.232,512,135479,77401
20337,90400.52909686667,1671368720.232,512,135479,77401
20338,90400.53189638333,1671368720.232,512,135481,77392
20338,90400.53189638333,1671368720.232,512,135481,77392
20339,90400.5346959,1671368720.232,511,135493,77398
20339,90400.5346959,1671368720.232,511,135493,77398
20340,90400.544052,1671368720.288,512,135578,77374
20340,90400.544052,1671368720.288,512,135578,77374
20341,90400.55340810001,1671368720.288,512,135535,77390
20341,90400.55340810001,1671368720.288,512,135535,77390
20342,90400.5627642,1671368720.288,512,135510,77395
20342,90400.5627642,1671368720.288,512,135510,77395
20343,90400.5721203,1671368720.288,512,135553,77408
20343,90400.5721203,1671368720.288,512,135553,77408
20344,90400.58147640001,1671368720.288,511,135611,77397
20344,90400.58147640001,1671368720.288,511,135611,77397
20345,90400.5908325,1671368720.288,511,135610,77418
20345,90400.5908325,1671368720.288,511,135610,77418
20346,90400.60728905,1671368720.387,512,135648,77374
20346,90400.60728905,1671368720.387,512,135648,77374
20347,90400.62374560001,1671368720.387,511,135589,77409
20347,90400.62374560001,1671368720.387,511,135589,77409
20348,90400.64020215001,1671368720.387,510,135658,77411
20348,90400.64020215001,1671368720.387,510,135658,77411
20349,90400.6566587,1671368720.387,511,135659,77422
20349,90400.6566587,1671368720.387,511,135659,77422
20350,90400.67311525,1671368720.387,514,135711,77410
20350,90400.67311525,1671368720.387,514,135711,77410
20351,90400.6895718,1671368720.387,512,135654,77396
20351,90400.6895718,1671368720.387,512,135654,77396
20352,90400.7054104,1671368720.482,511,135526,77337
20352,90400.7054104,1671368720.482,511,135526,77337
20353,90400.721249,1671368720.482,510,135452,77310
20353,90400.721249,1671368720.482,510,135452,77310
20354,90400.73708759999,1671368720.482,510,135239,77243
20354,90400.73708759999,1671368720.482,510,135239,77243
20355,90400.7529262,1671368720.482,511,135115,77203
20355,90400.7529262,1671368720.482,511,135115,77203
20356,90400.7687648,1671368720.482,510,135024,77178
20356,90400.7687648,1671368720.482,510,135024,77178
20357,90400.7846034,1671368720.482,510,135008,77170
20357,90400.7846034,1671368720.482,510,135008,77170
20358,90400.79881946667,1671368720.567,512,134929,77154
20358,90400.79881946667,1671368720.567,512,134929,77154
20359,90400.81303553333,1671368720.567,511,134951,77167
20359,90400.81303553333,1671368720.567,511,134951,77167
20360,90400.8272516,1671368720.567,512,134965,77156
20360,90400.8272516,1671368720.567,512,134965,77156
20361,90400.84146766667,1671368720.567,510,134918,77135
20361,90400.84146766667,1671368720.567,510,134918,77135
20362,90400.85568373333,1671368720.567,510,134956,77149
20362,90400.85568373333,1671368720.567,510,134956,77149
20363,90400.8698998,1671368720.567,511,134904,77134
20363,90400.8698998,1671368720.567,511,134904,77134
20364,90400.88708873333,1671368720.67,510,134878,77136
20364,90400.88708873333,1671368720.67,510,134878,77136
20365,90400.90427766668,1671368720.67,511,134940,77110
20365,90400.90427766668,1671368720.67,511,134940,77110
20366,90400.9214666,1671368720.67,512,134878,77118
20366,90400.9214666,1671368720.67,512,134878,77118
20367,90400.93865553333,1671368720.67,512,134956,77140
20367,90400.93865553333,1671368720.67,512,134956,77140
20368,90400.95584446668,1671368720.67,511,134927,77128
20368,90400.95584446668,1671368720.67,511,134927,77128
20369,90400.9730334,1671368720.67,511,134969,77128
20369,90400.9730334,1671368720.67,511,134969,77128
20370,90400.98961345,1671368720.77,514,134936,77121
20370,90400.98961345,1671368720.77,514,134936,77121
20371,90401.0061935,1671368720.77,512,134967,77124
20371,90401.0061935,1671368720.77,512,134967,77124
20372,90401.02277355001,1671368720.77,511,134870,77087
20372,90401.02277355001,1671368720.77,511,134870,77087
20373,90401.0393536,1671368720.77,511,134977,77106
20373,90401.0393536,1671368720.77,511,134977,77106
20374,90401.05593365,1671368720.77,512,134931,77102
20374,90401.05593365,1671368720.77,512,134931,77102
20375,90401.0725137,1671368720.77,512,134929,77081
20375,90401.0725137,1671368720.77,512,134929,77081
20376,90401.0863563,1671368720.853,512,134929,77084
20376,90401.0863563,1671368720.853,512,134929,77084
20377,90401.10019889999,1671368720.853,512,134933,77091
20377,90401.10019889999,1671368720.853,512,134933,77091
20378,90401.1140415,1671368720.853,514,134863,77084
20378,90401.1140415,1671368720.853,514,134863,77084
20379,90401.1278841,1671368720.853,511,134928,77084
20379,90401.1278841,1671368720.853,511,134928,77084
20380,90401.14172669999,1671368720.853,510,134890,77070
20380,90401.14172669999,1671368720.853,510,134890,77070
20381,90401.1555693,1671368720.853,510,134942,77104
20381,90401.1555693,1671368720.853,510,134942,77104
20382,90401.17363608333,1671368720.961,514,135021,77132
20382,90401.17363608333,1671368720.961,514,135021,77132
20383,90401.19170286666,1671368720.961,511,135005,77114
20383,90401.19170286666,1671368720.961,511,135005,77114
20384,90401.20976965,1671368720.961,512,135028,77119
20384,90401.20976965,1671368720.961,512,135028,77119
20385,90401.22783643333,1671368720.961,512,135018,77127
20385,90401.22783643333,1671368720.961,512,135018,77127
20386,90401.24590321667,1671368720.961,511,135054,77128
20386,90401.24590321667,1671368720.961,511,135054,77128
20387,90401.26397,1671368720.961,511,135067,77155
20387,90401.26397,1671368720.961,511,135067,77155
20388,90401.27775673333,1671368721.044,511,135166,77164
20388,90401.27775673333,1671368721.044,511,135166,77164
20389,90401.29154346666,1671368721.044,510,135136,77151
20389,90401.29154346666,1671368721.044,510,135136,77151
20390,90401.3053302,1671368721.044,511,135166,77159
20390,90401.3053302,1671368721.044,511,135166,77159
20391,90401.31911693333,1671368721.044,511,135081,77158
20391,90401.31911693333,1671368721.044,511,135081,77158
20392,90401.33290366665,1671368721.044,511,135191,77183
20392,90401.33290366665,1671368721.044,511,135191,77183
20393,90401.3466904,1671368721.044,511,135198,77167
20393,90401.3466904,1671368721.044,511,135198,77167
20394,90401.36396265,1671368721.148,511,135179,77190
20394,90401.36396265,1671368721.148,511,135179,77190
20395,90401.38123489999,1671368721.148,510,135228,77176
20395,90401.38123489999,1671368721.148,510,135228,77176
20396,90401.39850715,1671368721.148,511,135217,77178
20396,90401.39850715,1671368721.148,511,135217,77178
20397,90401.4157794,1671368721.148,511,135229,77187
20397,90401.4157794,1671368721.148,511,135229,77187
20398,90401.43305165,1671368721.148,512,135249,77159
20398,90401.43305165,1671368721.148,512,135249,77159
20399,90401.4503239,1671368721.148,510,135299,77187
20399,90401.4503239,1671368721.148,510,135299,77187
20400,90401.46497946666,1671368721.236,512,135272,77207
20400,90401.46497946666,1671368721.236,512,135272,77207
20401,90401.47963503333,1671368721.236,510,135307,77205
20401,90401.47963503333,1671368721.236,510,135307,77205
20402,90401.4942906,1671368721.236,511,135340,77200
20402,90401.4942906,1671368721.236,511,135340,77200
20403,90401.50894616666,1671368721.236,510,135272,77242
20403,90401.50894616666,1671368721.236,510,135272,77242
20404,90401.52360173332,1671368721.236,511,135365,77231
20404,90401.52360173332,1671368721.236,511,135365,77231
20405,90401.5382573,1671368721.236,510,135256,77178
20405,90401.5382573,1671368721.236,510,135256,77178
20406,90401.56016328333,1671368721.367,510,135080,77120
20406,90401.56016328333,1671368721.367,510,135080,77120
20407,90401.58206926666,1671368721.367,512,134890,77063
20407,90401.58206926666,1671368721.367,512,134890,77063
20408,90401.60397525001,1671368721.367,510,134777,76997
20408,90401.60397525001,1671368721.367,510,134777,76997
20409,90401.62588123334,1671368721.367,511,134631,76982
20409,90401.62588123334,1671368721.367,511,134631,76982
20410,90401.64778721667,1671368721.367,509,134533,76959
20410,90401.64778721667,1671368721.367,509,134533,76959
20411,90401.6696932,1671368721.367,510,134554,76933
20411,90401.6696932,1671368721.367,510,134554,76933
20412,90401.67856751668,1671368721.42,509,134534,76921
20412,90401.67856751668,1671368721.42,509,134534,76921
20413,90401.68744183333,1671368721.42,510,134567,76941
20413,90401.68744183333,1671368721.42,510,134567,76941
20414,90401.69631615,1671368721.42,512,134568,76919
20414,90401.69631615,1671368721.42,512,134568,76919
20415,90401.70519046667,1671368721.42,510,134527,76906
20415,90401.70519046667,1671368721.42,510,134527,76906
20416,90401.71406478333,1671368721.42,510,134470,76906
20416,90401.71406478333,1671368721.42,510,134470,76906
20417,90401.7229391,1671368721.42,511,134460,76900
20417,90401.7229391,1671368721.42,511,134460,76900
20418,90401.73890091667,1671368721.516,510,134414,76906
20418,90401.73890091667,1671368721.516,510,134414,76906
20419,90401.75486273333,1671368721.516,510,134477,76889
20419,90401.75486273333,1671368721.516,510,134477,76889
20420,90401.77082455001,1671368721.516,511,134489,76882
20420,90401.77082455001,1671368721.516,511,134489,76882
20421,90401.78678636668,1671368721.516,509,134458,76890
20421,90401.78678636668,1671368721.516,509,134458,76890
20422,90401.80274818334,1671368721.516,511,134539,76917
20422,90401.80274818334,1671368721.516,511,134539,76917
20423,90401.81871,1671368721.516,511,134453,76885
20423,90401.81871,1671368721.516,511,134453,76885
20424,90401.83593751668,1671368721.62,510,134478,76893
20424,90401.83593751668,1671368721.62,510,134478,76893
20425,90401.85316503333,1671368721.62,509,134412,76867
20425,90401.85316503333,1671368721.62,509,134412,76867
20426,90401.87039255,1671368721.62,511,134431,76875
20426,90401.87039255,1671368721.62,511,134431,76875
20427,90401.88762006667,1671368721.62,510,134418,76852
20427,90401.88762006667,1671368721.62,510,134418,76852
20428,90401.90484758333,1671368721.62,509,134418,76840
20428,90401.90484758333,1671368721.62,509,134418,76840
20429,90401.9220751,1671368721.62,509,134474,76854
20429,90401.9220751,1671368721.62,509,134474,76854
20430,90401.93597946667,1671368721.703,511,134408,76816
20430,90401.93597946667,1671368721.703,511,134408,76816
20431,90401.94988383332,1671368721.703,511,134454,76857
20431,90401.94988383332,1671368721.703,511,134454,76857
20432,90401.9637882,1671368721.703,510,134436,76827
20432,90401.9637882,1671368721.703,510,134436,76827
20433,90401.97769256667,1671368721.703,511,134491,76866
20433,90401.97769256667,1671368721.703,511,134491,76866
20434,90401.99159693332,1671368721.703,509,134453,76856
20434,90401.99159693332,1671368721.703,509,134453,76856
20435,90402.0055013,1671368721.703,510,134498,76862
20435,90402.0055013,1671368721.703,510,134498,76862
20436,90402.02040391666,1671368721.792,511,134517,76859
20436,90402.02040391666,1671368721.792,511,134517,76859
20437,90402.03530653333,1671368721.792,510,134513,76851
20437,90402.03530653333,1671368721.792,510,134513,76851
20438,90402.05020915,1671368721.792,510,134547,76859
20438,90402.05020915,1671368721.792,510,134547,76859
20439,90402.06511176666,1671368721.792,511,134639,76880
20439,90402.06511176666,1671368721.792,511,134639,76880
20440,90402.08001438333,1671368721.792,509,134552,76889
20440,90402.08001438333,1671368721.792,509,134552,76889
20441,90402.094917,1671368721.792,511,134572,76897
20441,90402.094917,1671368721.792,511,134572,76897
20442,90402.1127533,1671368721.899,511,134636,76883
20442,90402.1127533,1671368721.899,511,134636,76883
20443,90402.1305896,1671368721.899,510,134635,76904
20443,90402.1305896,1671368721.899,510,134635,76904
20444,90402.1484259,1671368721.899,509,134629,76910
20444,90402.1484259,1671368721.899,509,134629,76910
20445,90402.1662622,1671368721.899,509,134699,76906
20445,90402.1662622,1671368721.899,509,134699,76906
20446,90402.1840985,1671368721.899,510,134636,76910
20446,90402.1840985,1671368721.899,510,134636,76910
20447,90402.2019348,1671368721.899,511,134663,76925
20447,90402.2019348,1671368721.899,511,134663,76925
20448,90402.21534178333,1671368721.98,512,134719,76921
20448,90402.21534178333,1671368721.98,512,134719,76921
20449,90402.22874876666,1671368721.98,510,134682,76924
20449,90402.22874876666,1671368721.98,510,134682,76924
20450,90402.24215574999,1671368721.98,511,134716,76921
20450,90402.24215574999,1671368721.98,511,134716,76921
20451,90402.25556273333,1671368721.98,512,134765,76944
20451,90402.25556273333,1671368721.98,512,134765,76944
20452,90402.26896971666,1671368721.98,509,134747,76913
20452,90402.26896971666,1671368721.98,509,134747,76913
20453,90402.2823767,1671368721.98,510,134807,76923
20453,90402.2823767,1671368721.98,510,134807,76923
20454,90402.30072006666,1671368722.09,510,134836,76917
20454,90402.30072006666,1671368722.09,510,134836,76917
20455,90402.31906343333,1671368722.09,510,134834,76928
20455,90402.31906343333,1671368722.09,510,134834,76928
20456,90402.3374068,1671368722.09,510,134833,76942
20456,90402.3374068,1671368722.09,510,134833,76942
20457,90402.35575016667,1671368722.09,511,134914,76959
20457,90402.35575016667,1671368722.09,511,134914,76959
20458,90402.37409353333,1671368722.09,509,134864,76975
20458,90402.37409353333,1671368722.09,509,134864,76975
20459,90402.3924369,1671368722.09,511,134902,76966
20459,90402.3924369,1671368722.09,511,134902,76966
20460,90402.40501076667,1671368722.165,511,134934,76973
20460,90402.40501076667,1671368722.165,511,134934,76973
20461,90402.41758463334,1671368722.165,512,134920,76991
20461,90402.41758463334,1671368722.165,512,134920,76991
20462,90402.4301585,1671368722.165,511,134923,76976
20462,90402.4301585,1671368722.165,511,134923,76976
20463,90402.44273236666,1671368722.165,511,134934,76983
20463,90402.44273236666,1671368722.165,511,134934,76983
20464,90402.45530623333,1671368722.165,511,135051,76992
20464,90402.45530623333,1671368722.165,511,135051,76992
20465,90402.4678801,1671368722.165,512,135040,76992
20465,90402.4678801,1671368722.165,512,135040,76992
20466,90402.48483575,1671368722.267,510,134975,77011
20466,90402.48483575,1671368722.267,510,134975,77011
20467,90402.50179139999,1671368722.267,510,135179,77038
20467,90402.50179139999,1671368722.267,510,135179,77038
20468,90402.51874705,1671368722.267,509,135101,77027
20468,90402.51874705,1671368722.267,509,135101,77027
20469,90402.5357027,1671368722.267,510,134975,76987
20469,90402.5357027,1671368722.267,510,134975,76987
20470,90402.55265834999,1671368722.267,511,134878,76929
20470,90402.55265834999,1671368722.267,511,134878,76929
20471,90402.569614,1671368722.267,512,134648,76850
20471,90402.569614,1671368722.267,512,134648,76850
20472,90402.58486866666,1671368722.359,509,134440,76807
20472,90402.58486866666,1671368722.359,509,134440,76807
20473,90402.60012333332,1671368722.359,511,134378,76777
20473,90402.60012333332,1671368722.359,511,134378,76777
20474,90402.61537799999,1671368722.359,510,134280,76749
20474,90402.61537799999,1671368722.359,510,134280,76749
20475,90402.63063266667,1671368722.359,510,134276,76741
20475,90402.63063266667,1671368722.359,510,134276,76741
20476,90402.64588733333,1671368722.359,510,134220,76737
20476,90402.64588733333,1671368722.359,510,134220,76737
20477,90402.661142,1671368722.359,509,134173,76730
20477,90402.661142,1671368722.359,509,134173,76730
20478,90402.67750446667,1671368722.457,510,134189,76716
20478,90402.67750446667,1671368722.457,510,134189,76716
20479,90402.69386693333,1671368722.457,510,134200,76726
20479,90402.69386693333,1671368722.457,510,134200,76726
20480,90402.71022939999,1671368722.457,511,134251,76733
20480,90402.71022939999,1671368722.457,511,134251,76733
20481,90402.72659186667,1671368722.457,510,134141,76717
20481,90402.72659186667,1671368722.457,510,134141,76717
20482,90402.74295433334,1671368722.457,510,134136,76673
20482,90402.74295433334,1671368722.457,510,134136,76673
20483,90402.7593168,1671368722.457,511,134147,76675
20483,90402.7593168,1671368722.457,511,134147,76675
20484,90402.77427603333,1671368722.547,510,134125,76704
20484,90402.77427603333,1671368722.547,510,134125,76704
20485,90402.78923526667,1671368722.547,511,134158,76676
20485,90402.78923526667,1671368722.547,511,134158,76676
20486,90402.8041945,1671368722.547,510,134188,76700
20486,90402.8041945,1671368722.547,510,134188,76700
20487,90402.81915373333,1671368722.547,512,134180,76708
20487,90402.81915373333,1671368722.547,512,134180,76708
20488,90402.83411296667,1671368722.547,509,134182,76701
20488,90402.83411296667,1671368722.547,509,134182,76701
20489,90402.8490722,1671368722.547,509,134171,76677
20489,90402.8490722,1671368722.547,509,134171,76677
20490,90402.86574316667,1671368722.647,510,134122,76652
20490,90402.86574316667,1671368722.647,510,134122,76652
20491,90402.88241413333,1671368722.647,510,134089,76663
20491,90402.88241413333,1671368722.647,510,134089,76663
20492,90402.8990851,1671368722.647,509,134108,76669
20492,90402.8990851,1671368722.647,509,134108,76669
20493,90402.91575606666,1671368722.647,510,134165,76639
20493,90402.91575606666,1671368722.647,510,134165,76639
20494,90402.93242703333,1671368722.647,511,134117,76648
20494,90402.93242703333,1671368722.647,511,134117,76648
20495,90402.949098,1671368722.647,510,134143,76645
20495,90402.949098,1671368722.647,510,134143,76645
20496,90402.96979863333,1671368722.771,510,134155,76648
20496,90402.96979863333,1671368722.771,510,134155,76648
20497,90402.99049926667,1671368722.771,510,134071,76638
20497,90402.99049926667,1671368722.771,510,134071,76638
20498,90403.01119990001,1671368722.771,508,134101,76639
20498,90403.01119990001,1671368722.771,508,134101,76639
20499,90403.03190053333,1671368722.771,511,134148,76651
20499,90403.03190053333,1671368722.771,511,134148,76651
20500,90403.05260116667,1671368722.771,510,134154,76659
20500,90403.05260116667,1671368722.771,510,134154,76659
20501,90403.0733018,1671368722.771,511,134156,76653
20501,90403.0733018,1671368722.771,511,134156,76653
20502,90403.0824227,1671368722.825,510,134247,76672
20502,90403.0824227,1671368722.825,510,134247,76672
20503,90403.0915436,1671368722.825,510,134218,76686
20503,90403.0915436,1671368722.825,510,134218,76686
20504,90403.1006645,1671368722.825,511,134301,76680
20504,90403.1006645,1671368722.825,511,134301,76680
20505,90403.1097854,1671368722.825,512,134233,76684
20505,90403.1097854,1671368722.825,512,134233,76684
20506,90403.1189063,1671368722.825,510,134306,76695
20506,90403.1189063,1671368722.825,510,134306,76695
20507,90403.1280272,1671368722.825,512,134359,76708
20507,90403.1280272,1671368722.825,512,134359,76708
20508,90403.1431107,1671368722.916,510,134406,76714
20508,90403.1431107,1671368722.916,510,134406,76714
20509,90403.1581942,1671368722.916,511,134396,76716
20509,90403.1581942,1671368722.916,511,134396,76716
20510,90403.1732777,1671368722.916,512,134383,76701
20510,90403.1732777,1671368722.916,512,134383,76701
20511,90403.1883612,1671368722.916,511,134416,76706
20511,90403.1883612,1671368722.916,511,134416,76706
20512,90403.2034447,1671368722.916,511,134430,76720
20512,90403.2034447,1671368722.916,511,134430,76720
20513,90403.2185282,1671368722.916,511,134469,76725
20513,90403.2185282,1671368722.916,511,134469,76725
20514,90403.2347805,1671368723.013,510,134526,76738
20514,90403.2347805,1671368723.013,510,134526,76738
20515,90403.2510328,1671368723.013,510,134503,76727
20515,90403.2510328,1671368723.013,510,134503,76727
20516,90403.26728510001,1671368723.013,509,134510,76750
20516,90403.26728510001,1671368723.013,509,134510,76750
20517,90403.2835374,1671368723.013,510,134557,76746
20517,90403.2835374,1671368723.013,510,134557,76746
20518,90403.2997897,1671368723.013,512,134596,76758
20518,90403.2997897,1671368723.013,512,134596,76758
20519,90403.316042,1671368723.013,511,134576,76753
20519,90403.316042,1671368723.013,511,134576,76753
20520,90403.33099561668,1671368723.103,510,134611,76748
20520,90403.33099561668,1671368723.103,510,134611,76748
20521,90403.34594923333,1671368723.103,511,134651,76780
20521,90403.34594923333,1671368723.103,511,134651,76780
20522,90403.36090284999,1671368723.103,511,134596,76773
20522,90403.36090284999,1671368723.103,511,134596,76773
20523,90403.37585646666,1671368723.103,511,134680,76771
20523,90403.37585646666,1671368723.103,511,134680,76771
20524,90403.39081008334,1671368723.103,511,134658,76782
20524,90403.39081008334,1671368723.103,511,134658,76782
20525,90403.4057637,1671368723.103,511,134691,76784
20525,90403.4057637,1671368723.103,511,134691,76784
20526,90403.42128478333,1671368723.196,511,134768,76769
20526,90403.42128478333,1671368723.196,511,134768,76769
20527,90403.43680586666,1671368723.196,511,134767,76787
20527,90403.43680586666,1671368723.196,511,134767,76787
20528,90403.45232695,1671368723.196,510,134764,76814
20528,90403.45232695,1671368723.196,510,134764,76814
20529,90403.46784803334,1671368723.196,512,134871,76816
20529,90403.46784803334,1671368723.196,512,134871,76816
20530,90403.48336911667,1671368723.196,511,134869,76828
20530,90403.48336911667,1671368723.196,511,134869,76828
20531,90403.4988902,1671368723.196,509,134816,76818
20531,90403.4988902,1671368723.196,509,134816,76818
20532,90403.51446518334,1671368723.29,510,134855,76835
20532,90403.51446518334,1671368723.29,510,134855,76835
20533,90403.53004016668,1671368723.29,511,134910,76850
20533,90403.53004016668,1671368723.29,511,134910,76850
20534,90403.54561515001,1671368723.29,511,135042,76845
20534,90403.54561515001,1671368723.29,511,135042,76845
20535,90403.56119013333,1671368723.29,512,134934,76847
20535,90403.56119013333,1671368723.29,512,134934,76847
20536,90403.57676511667,1671368723.29,512,134801,76801
20536,90403.57676511667,1671368723.29,512,134801,76801
20537,90403.5923401,1671368723.29,512,134618,76717
20537,90403.5923401,1671368723.29,512,134618,76717
20538,90403.60891471666,1671368723.389,510,134371,76658
20538,90403.60891471666,1671368723.389,510,134371,76658
20539,90403.62548933334,1671368723.389,510,134249,76625
20539,90403.62548933334,1671368723.389,510,134249,76625
20540,90403.64206395,1671368723.389,510,134140,76590
20540,90403.64206395,1671368723.389,510,134140,76590
20541,90403.65863856666,1671368723.389,509,134012,76564
20541,90403.65863856666,1671368723.389,509,134012,76564
20542,90403.67521318333,1671368723.389,510,134054,76542
20542,90403.67521318333,1671368723.389,510,134054,76542
20543,90403.6917878,1671368723.389,510,134013,76538
20543,90403.6917878,1671368723.389,510,134013,76538
20544,90403.70721731667,1671368723.482,510,134082,76552
20544,90403.70721731667,1671368723.482,510,134082,76552
20545,90403.72264683332,1671368723.482,511,133996,76543
20545,90403.72264683332,1671368723.482,511,133996,76543
20546,90403.73807635,1671368723.482,510,134056,76557
20546,90403.73807635,1671368723.482,510,134056,76557
20547,90403.75350586667,1671368723.482,510,134043,76539
20547,90403.75350586667,1671368723.482,510,134043,76539
20548,90403.76893538333,1671368723.482,509,134097,76536
20548,90403.76893538333,1671368723.482,509,134097,76536
20549,90403.7843649,1671368723.482,510,134036,76532
20549,90403.7843649,1671368723.482,510,134036,76532
20550,90403.8017201,1671368723.586,510,133983,76529
20550,90403.8017201,1671368723.586,510,133983,76529
20551,90403.8190753,1671368723.586,511,134086,76550
20551,90403.8190753,1671368723.586,511,134086,76550
20552,90403.8364305,1671368723.586,511,134071,76540
20552,90403.8364305,1671368723.586,511,134071,76540
20553,90403.8537857,1671368723.586,510,134090,76543
20553,90403.8537857,1671368723.586,510,134090,76543
20554,90403.8711409,1671368723.586,510,134126,76535
20554,90403.8711409,1671368723.586,510,134126,76535
20555,90403.8884961,1671368723.586,509,134093,76518
20555,90403.8884961,1671368723.586,509,134093,76518
20556,90403.90665116668,1671368723.695,511,134042,76519
20556,90403.90665116668,1671368723.695,511,134042,76519
20557,90403.92480623334,1671368723.695,508,134050,76495
20557,90403.92480623334,1671368723.695,508,134050,76495
20558,90403.9429613,1671368723.695,510,134058,76482
20558,90403.9429613,1671368723.695,510,134058,76482
20559,90403.96111636667,1671368723.695,510,134019,76470
20559,90403.96111636667,1671368723.695,510,134019,76470
20560,90403.97927143335,1671368723.695,511,134027,76478
20560,90403.97927143335,1671368723.695,511,134027,76478
20561,90403.9974265,1671368723.695,510,134003,76483
20561,90403.9974265,1671368723.695,510,134003,76483
20562,90404.00862703334,1671368723.762,509,134013,76445
20562,90404.00862703334,1671368723.762,509,134013,76445
20563,90404.01982756668,1671368723.762,509,134026,76467
20563,90404.01982756668,1671368723.762,509,134026,76467
20564,90404.0310281,1671368723.762,509,134006,76466
20564,90404.0310281,1671368723.762,509,134006,76466
20565,90404.04222863333,1671368723.762,510,134046,76475
20565,90404.04222863333,1671368723.762,510,134046,76475
20566,90404.05342916667,1671368723.762,511,133992,76475
20566,90404.05342916667,1671368723.762,511,133992,76475
20567,90404.0646297,1671368723.762,510,134073,76470
20567,90404.0646297,1671368723.762,510,134073,76470
20568,90404.0807182,1671368723.859,510,134039,76498
20568,90404.0807182,1671368723.859,510,134039,76498
20569,90404.0968067,1671368723.859,509,134114,76500
20569,90404.0968067,1671368723.859,509,134114,76500
20570,90404.1128952,1671368723.859,510,134197,76522
20570,90404.1128952,1671368723.859,510,134197,76522
20571,90404.1289837,1671368723.859,509,134178,76497
20571,90404.1289837,1671368723.859,509,134178,76497
20572,90404.1450722,1671368723.859,510,134195,76524
20572,90404.1450722,1671368723.859,510,134195,76524
20573,90404.1611607,1671368723.859,510,134224,76502
20573,90404.1611607,1671368723.859,510,134224,76502
20574,90404.1756801,1671368723.946,510,134212,76520
20574,90404.1756801,1671368723.946,510,134212,76520
20575,90404.1901995,1671368723.946,510,134206,76517
20575,90404.1901995,1671368723.946,510,134206,76517
20576,90404.2047189,1671368723.946,511,134260,76511
20576,90404.2047189,1671368723.946,511,134260,76511
20577,90404.21923830001,1671368723.946,510,134256,76554
20577,90404.21923830001,1671368723.946,510,134256,76554
20578,90404.2337577,1671368723.946,511,134346,76549
20578,90404.2337577,1671368723.946,511,134346,76549
20579,90404.2482771,1671368723.946,510,134354,76540
20579,90404.2482771,1671368723.946,510,134354,76540
20580,90404.26780715,1671368724.063,510,134341,76529
20580,90404.26780715,1671368724.063,510,134341,76529
20581,90404.2873372,1671368724.063,509,134349,76536
20581,90404.2873372,1671368724.063,509,134349,76536
20582,90404.30686725001,1671368724.063,511,134343,76546
20582,90404.30686725001,1671368724.063,511,134343,76546
20583,90404.3263973,1671368724.063,510,134385,76556
20583,90404.3263973,1671368724.063,510,134385,76556
20584,90404.33799512072,1671368724.063,511,134391,76550
20584,90404.34700958715,1671368724.063,511,134391,76550
20585,90404.35602405357,1671368724.063,510,134370,76573
20585,90404.36503852,1671368724.063,510,134370,76573
20586,90404.37405298643,1671368724.148,509,134474,76560
20586,90404.38306745286,1671368724.148,509,134474,76560
20587,90404.39208191929,1671368724.148,509,134436,76563
20587,90404.40109638571,1671368724.148,509,134436,76563
20588,90404.41011085214,1671368724.148,512,134536,76582
20588,90404.41912531857,1671368724.148,512,134536,76582
20589,90404.428139785,1671368724.148,510,134498,76576
20589,90404.43715425143,1671368724.148,510,134498,76576
20590,90404.44616871786,1671368724.148,512,134546,76592
20590,90404.45518318428,1671368724.148,512,134546,76592
20591,90404.46419765071,1671368724.148,511,134546,76609
20591,90404.47321211714,1671368724.148,511,134546,76609
20592,90404.48222658357,1671368724.245,511,134588,76571
20592,90404.49124105,1671368724.245,511,134588,76571
20593,90404.50025551642,1671368724.245,512,134614,76605
20593,90404.50926998285,1671368724.245,512,134614,76605
20594,90404.49176077607,1671368724.245,510,134554,76613
20594,90404.49905331948,1671368724.245,510,134554,76613
20595,90404.50634586289,1671368724.245,511,134556,76550
20595,90404.5136384063,1671368724.245,511,134556,76550
20596,90404.5209309497,1671368724.245,511,134381,76511
20596,90404.52822349311,1671368724.245,511,134381,76511
20597,90404.53551603651,1671368724.245,511,134215,76454
20597,90404.54280857992,1671368724.245,511,134215,76454
20598,90404.55010112333,1671368724.323,510,134051,76388
20598,90404.55739366674,1671368724.323,510,134051,76388
20599,90404.56468621014,1671368724.323,511,133877,76372
20599,90404.57197875355,1671368724.323,511,133877,76372
20600,90404.57927129696,1671368724.323,511,133858,76341
20600,90404.58656384036,1671368724.323,511,133858,76341
20601,90404.59385638377,1671368724.323,510,133820,76330
20601,90404.60114892718,1671368724.323,510,133820,76330
20602,90404.60844147058,1671368724.323,510,133814,76332
20602,90404.61573401399,1671368724.323,510,133814,76332
20603,90404.6230265574,1671368724.323,509,133779,76306
20603,90404.6303191008,1671368724.323,509,133779,76306
20604,90404.63322527468,1671368724.415,511,133812,76302
20604,90404.63934948073,1671368724.415,511,133812,76302
20605,90404.64547368677,1671368724.415,509,133760,76310
20605,90404.65159789282,1671368724.415,509,133760,76310
20606,90404.65772209887,1671368724.415,510,133764,76303
20606,90404.66384630492,1671368724.415,510,133764,76303
20607,90404.66997051096,1671368724.415,510,133771,76297
20607,90404.67609471701,1671368724.415,510,133771,76297
20608,90404.68221892306,1671368724.415,511,133803,76287
20608,90404.6883431291,1671368724.415,511,133803,76287
20609,90404.69446733515,1671368724.415,510,133819,76273
20609,90404.7005915412,1671368724.415,510,133819,76273
20610,90404.70671574725,1671368724.518,511,133866,76317
20610,90404.7128399533,1671368724.518,511,133866,76317
20611,90404.71896415934,1671368724.518,510,133809,76306
20611,90404.72508836539,1671368724.518,510,133809,76306
20612,90404.73121257144,1671368724.518,509,133869,76301
20612,90404.73733677749,1671368724.518,509,133869,76301
20613,90404.74346098353,1671368724.518,510,133901,76296
20613,90404.74958518958,1671368724.518,510,133901,76296
20614,90404.79633463667,1671368724.518,510,133884,76282
20614,90404.80435574861,1671368724.518,510,133884,76282
20615,90404.81237686054,1671368724.518,511,133816,76272
20615,90404.82039797248,1671368724.518,511,133816,76272
20616,90404.82841908441,1671368724.61,510,133859,76268
20616,90404.83644019635,1671368724.61,510,133859,76268
20617,90404.84446130828,1671368724.61,510,133796,76259
20617,90404.85248242022,1671368724.61,510,133796,76259
20618,90404.86050353215,1671368724.61,510,133822,76228
20618,90404.86852464409,1671368724.61,510,133822,76228
20619,90404.87654575602,1671368724.61,510,133773,76243
20619,90404.88456686796,1671368724.61,510,133773,76243
20620,90404.89258797989,1671368724.61,512,133774,76248
20620,90404.90060909183,1671368724.61,512,133774,76248
20621,90404.90863020376,1671368724.61,511,133734,76219
20621,90404.9166513157,1671368724.61,511,133734,76219
20622,90404.92467242763,1671368724.698,509,133784,76243
20622,90404.93269353957,1671368724.698,509,133784,76243
20623,90404.9407146515,1671368724.698,510,133801,76260
20623,90404.94873576344,1671368724.698,510,133801,76260
20624,90404.95073450508,1671368724.698,511,133852,76216
20624,90404.95769941142,1671368724.698,511,133852,76216
20625,90404.96466431775,1671368724.698,510,133824,76255
20625,90404.97162922409,1671368724.698,510,133824,76255
20626,90404.97859413043,1671368724.698,511,133882,76251
20626,90404.98555903677,1671368724.698,511,133882,76251
20627,90404.9925239431,1671368724.698,510,133829,76262
20627,90404.99948884944,1671368724.698,510,133829,76262
20628,90405.00645375578,1671368724.79,509,133916,76252
20628,90405.01341866211,1671368724.79,509,133916,76252
20629,90405.02038356845,1671368724.79,510,133949,76258
20629,90405.02734847479,1671368724.79,510,133949,76258
20630,90405.03431338113,1671368724.79,510,133943,76247
20630,90405.04127828746,1671368724.79,510,133943,76247
20631,90405.0482431938,1671368724.79,510,133979,76285
20631,90405.05520810014,1671368724.79,510,133979,76285
20632,90405.06217300647,1671368724.79,512,134062,76281
20632,90405.06913791281,1671368724.79,512,134062,76281
20633,90405.07610281915,1671368724.79,510,134058,76266
20633,90405.08306772549,1671368724.79,510,134058,76266
20634,90405.10148841343,1671368724.892,509,134065,76274
20634,90405.10866438979,1671368724.892,509,134065,76274
20635,90405.11584036614,1671368724.892,510,134122,76306
20635,90405.12301634249,1671368724.892,510,134122,76306
20636,90405.13019231884,1671368724.892,510,134099,76314
20636,90405.1373682952,1671368724.892,510,134099,76314
20637,90405.14454427155,1671368724.892,510,134148,76315
20637,90405.1517202479,1671368724.892,510,134148,76315
20638,90405.15889622425,1671368724.892,510,134191,76323
20638,90405.1660722006,1671368724.892,510,134191,76323
20639,90405.17324817696,1671368724.892,511,134219,76317
20639,90405.18042415331,1671368724.892,511,134219,76317
20640,90405.18760012966,1671368724.975,512,134215,76321
20640,90405.19477610601,1671368724.975,512,134215,76321
20641,90405.20195208237,1671368724.975,510,134184,76310
20641,90405.20912805872,1671368724.975,510,134184,76310
20642,90405.21630403507,1671368724.975,511,134295,76335
20642,90405.22348001142,1671368724.975,511,134295,76335
20643,90405.23065598778,1671368724.975,511,134236,76344
20643,90405.23783196413,1671368724.975,511,134236,76344
20644,90405.25868827329,1671368724.975,510,134308,76326
20644,90405.2652690121,1671368724.975,510,134308,76326
20645,90405.27184975092,1671368724.975,510,134267,76340
20645,90405.27843048974,1671368724.975,510,134267,76340
20646,90405.28501122855,1671368725.082,511,134327,76333
20646,90405.29159196737,1671368725.082,511,134327,76333
20647,90405.29817270619,1671368725.082,511,134290,76344
20647,90405.304753445,1671368725.082,511,134290,76344
20648,90405.31133418382,1671368725.082,512,134386,76340
20648,90405.31791492263,1671368725.082,512,134386,76340
20649,90405.32449566145,1671368725.082,512,134330,76364
20649,90405.33107640027,1671368725.082,512,134330,76364
20650,90405.33765713908,1671368725.082,510,134415,76379
20650,90405.3442378779,1671368725.082,510,134415,76379
20651,90405.35081861672,1671368725.082,510,134447,76388
20651,90405.35739935553,1671368725.082,510,134447,76388
20652,90405.36398009435,1671368725.183,509,134499,76373
20652,90405.37056083317,1671368725.183,509,134499,76373
20653,90405.37714157198,1671368725.183,510,134503,76367
20653,90405.3837223108,1671368725.183,510,134503,76367
20654,90405.42860859394,1671368725.183,512,134440,76330
20654,90405.4366711317,1671368725.183,512,134440,76330
20655,90405.44473366946,1671368725.183,511,134277,76291
20655,90405.45279620722,1671368725.183,511,134277,76291
20656,90405.46085874498,1671368725.183,511,134082,76225
20656,90405.46892128274,1671368725.183,511,134082,76225
20657,90405.4769838205,1671368725.183,510,133850,76156
20657,90405.48504635826,1671368725.183,510,133850,76156
20658,90405.49310889601,1671368725.274,510,133747,76139
20658,90405.50117143377,1671368725.274,510,133747,76139
20659,90405.50923397153,1671368725.274,511,133716,76126
20659,90405.5172965093,1671368725.274,511,133716,76126
20660,90405.52535904705,1671368725.274,510,133601,76108
20660,90405.53342158481,1671368725.274,510,133601,76108
20661,90405.54148412257,1671368725.274,511,133516,76075
20661,90405.54954666033,1671368725.274,511,133516,76075
20662,90405.55760919809,1671368725.274,511,133560,76073
20662,90405.56567173585,1671368725.274,511,133560,76073
20663,90405.57373427361,1671368725.274,510,133508,76058
20663,90405.58179681137,1671368725.274,510,133508,76058
20664,90405.58628012623,1671368725.352,512,133523,76061
20664,90405.59339807372,1671368725.352,512,133523,76061
20665,90405.60051602121,1671368725.352,514,133520,76057
20665,90405.6076339687,1671368725.352,514,133520,76057
20666,90405.61475191619,1671368725.352,511,133527,76020
20666,90405.62186986368,1671368725.352,511,133527,76020
20667,90405.62898781117,1671368725.352,510,133537,76041
20667,90405.63610575866,1671368725.352,510,133537,76041
20668,90405.64322370615,1671368725.352,510,133549,76015
20668,90405.65034165364,1671368725.352,510,133549,76015
20669,90405.65745960113,1671368725.352,510,133473,76017
20669,90405.66457754862,1671368725.352,510,133473,76017
20670,90405.67169549612,1671368725.448,512,133546,76020
20670,90405.6788134436,1671368725.448,512,133546,76020
20671,90405.6859313911,1671368725.448,511,133558,76018
20671,90405.69304933859,1671368725.448,511,133558,76018
20672,90405.70016728608,1671368725.448,510,133563,76043
20672,90405.70728523357,1671368725.448,510,133563,76043
20673,90405.71440318106,1671368725.448,511,133520,75993
20673,90405.72152112855,1671368725.448,511,133520,75993
20674,90405.72852370598,1671368725.448,510,133477,75996
20674,90405.73595021776,1671368725.448,510,133477,75996
20675,90405.74337672953,1671368725.448,509,133517,75988
20675,90405.7508032413,1671368725.448,509,133517,75988
20676,90405.75822975308,1671368725.547,510,133575,75997
20676,90405.76565626485,1671368725.547,510,133575,75997
20677,90405.77308277662,1671368725.547,511,133491,75977
20677,90405.7805092884,1671368725.547,511,133491,75977
20678,90405.78793580017,1671368725.547,510,133462,75977
20678,90405.79536231194,1671368725.547,510,133462,75977
20679,90405.80278882371,1671368725.547,511,133425,75964
20679,90405.81021533548,1671368725.547,511,133425,75964
20680,90405.81764184726,1671368725.547,512,133430,75972
20680,90405.82506835903,1671368725.547,512,133430,75972
20681,90405.8324948708,1671368725.547,510,133450,75975
20681,90405.83992138258,1671368725.547,510,133450,75975
20682,90405.84734789435,1671368725.642,510,133428,75967
20682,90405.85477440612,1671368725.642,510,133428,75967
20683,90405.8622009179,1671368725.642,512,133490,75971
20683,90405.86962742967,1671368725.642,512,133490,75971
20684,90405.89123406306,1671368725.642,511,133522,75963
20684,90405.89872542972,1671368725.642,511,133522,75963
20685,90405.90621679639,1671368725.642,512,133491,75954
20685,90405.91370816305,1671368725.642,512,133491,75954
20686,90405.92119952971,1671368725.642,511,133502,75971
20686,90405.92869089637,1671368725.642,511,133502,75971
20687,90405.93618226303,1671368725.642,512,133495,75951
20687,90405.94367362969,1671368725.642,512,133495,75951
20688,90405.95116499635,1671368725.727,511,133539,75967
20688,90405.95865636301,1671368725.727,511,133539,75967
20689,90405.96614772968,1671368725.727,512,133559,75987
20689,90405.97363909634,1671368725.727,512,133559,75987
20690,90405.981130463,1671368725.727,510,133565,75988
20690,90405.98862182966,1671368725.727,510,133565,75988
20691,90405.99611319632,1671368725.727,510,133614,75990
20691,90406.00360456298,1671368725.727,510,133614,75990
20692,90406.01109592964,1671368725.727,509,133644,75976
20692,90406.0185872963,1671368725.727,509,133644,75976
20693,90406.02607866297,1671368725.727,510,133557,75995
20693,90406.03357002963,1671368725.727,510,133557,75995
20694,90406.03811437526,1671368725.829,511,133631,75981
20694,90406.04475888838,1671368725.829,511,133631,75981
20695,90406.0514034015,1671368725.829,511,133650,75973
20695,90406.05804791463,1671368725.829,511,133650,75973
20696,90406.06469242775,1671368725.829,511,133651,75996
20696,90406.07133694088,1671368725.829,511,133651,75996
20697,90406.077981454,1671368725.829,510,133669,76010
20697,90406.08462596712,1671368725.829,510,133669,76010
20698,90406.09127048025,1671368725.829,514,133723,76004
20698,90406.09791499337,1671368725.829,514,133723,76004
20699,90406.1045595065,1671368725.829,510,133754,75980
20699,90406.11120401962,1671368725.829,510,133754,75980
20700,90406.11784853274,1671368725.916,509,133663,76009
20700,90406.12449304586,1671368725.916,509,133663,76009
20701,90406.13113755899,1671368725.916,511,133727,76006
20701,90406.13778207211,1671368725.916,511,133727,76006
20702,90406.14442658523,1671368725.916,511,133716,75992
20702,90406.15107109836,1671368725.916,511,133716,75992
20703,90406.15771561148,1671368725.916,512,133699,76016
20703,90406.1643601246,1671368725.916,512,133699,76016
20704,90406.19844669219,1671368725.916,512,133792,76017
20704,90406.2053495,1671368725.916,512,133792,76017
20705,90406.21225230781,1671368725.916,512,133770,76003
20705,90406.21915511563,1671368725.916,512,133770,76003
20706,90406.22605792344,1671368726.01,512,133745,76005
20706,90406.23296073126,1671368726.01,512,133745,76005
20707,90406.23986353907,1671368726.01,510,133789,76005
20707,90406.24676634689,1671368726.01,510,133789,76005
20708,90406.2536691547,1671368726.01,511,133774,75979
20708,90406.26057196251,1671368726.01,511,133774,75979
20709,90406.26747477033,1671368726.01,512,133827,75991
20709,90406.27437757814,1671368726.01,512,133827,75991
20710,90406.28128038596,1671368726.01,512,133842,75985
20710,90406.28818319377,1671368726.01,512,133842,75985
20711,90406.29508600158,1671368726.01,512,133784,75975
20711,90406.3019888094,1671368726.01,512,133784,75975
20712,90406.30889161721,1671368726.11,515,133697,75912
20712,90406.31579442503,1671368726.11,515,133697,75912
20713,90406.32269723284,1671368726.11,512,133507,75861
20713,90406.32960004066,1671368726.11,512,133507,75861
20714,90406.35591634978,1671368726.11,511,133380,75800
20714,90406.36355076535,1671368726.11,511,133380,75800
20715,90406.37118518092,1671368726.11,510,133171,75776
20715,90406.37881959649,1671368726.11,510,133171,75776
20716,90406.38645401206,1671368726.11,510,133130,75747
20716,90406.39408842762,1671368726.11,510,133130,75747
20717,90406.40172284319,1671368726.11,511,133117,75740
20717,90406.40935725876,1671368726.11,511,133117,75740
20718,90406.41699167433,1671368726.197,512,133064,75722
20718,90406.4246260899,1671368726.197,512,133064,75722
20719,90406.43226050546,1671368726.197,514,133143,75732
20719,90406.43989492103,1671368726.197,514,133143,75732
20720,90406.4475293366,1671368726.197,514,133007,75718
20720,90406.45516375217,1671368726.197,514,133007,75718
20721,90406.46279816773,1671368726.197,512,133006,75713
20721,90406.4704325833,1671368726.197,512,133006,75713
20722,90406.47806699887,1671368726.197,512,133063,75688
20722,90406.48570141444,1671368726.197,512,133063,75688
20723,90406.49333583,1671368726.197,511,133072,75715
20723,90406.50097024557,1671368726.197,511,133072,75715
20724,90406.50816009508,1671368726.291,511,133100,75692
20724,90406.51497819675,1671368726.291,511,133100,75692
20725,90406.52179629842,1671368726.291,515,133073,75681
20725,90406.52861440009,1671368726.291,515,133073,75681
20726,90406.53543250175,1671368726.291,511,133018,75708
20726,90406.54225060342,1671368726.291,511,133018,75708
20727,90406.54906870509,1671368726.291,512,133033,75691
20727,90406.55588680676,1671368726.291,512,133033,75691
20728,90406.56270490843,1671368726.291,512,133042,75703
20728,90406.5695230101,1671368726.291,512,133042,75703
20729,90406.57634111177,1671368726.291,512,133076,75682
20729,90406.58315921343,1671368726.291,512,133076,75682
20730,90406.5899773151,1671368726.391,511,133014,75672
20730,90406.59679541677,1671368726.391,511,133014,75672
20731,90406.60361351844,1671368726.391,512,133037,75692
20731,90406.61043162011,1671368726.391,512,133037,75692
20732,90406.61724972178,1671368726.391,512,132990,75669
20732,90406.62406782345,1671368726.391,512,132990,75669
20733,90406.63088592511,1671368726.391,512,132985,75645
20733,90406.63770402678,1671368726.391,512,132985,75645
20734,90406.67067401837,1671368726.391,512,132982,75624
20734,90406.67848140697,1671368726.391,512,132982,75624
20735,90406.68628879556,1671368726.391,514,132989,75651
20735,90406.69409618416,1671368726.391,514,132989,75651
20736,90406.70190357276,1671368726.497,511,132986,75635
20736,90406.70971096135,1671368726.497,511,132986,75635
20737,90406.71751834995,1671368726.497,510,132930,75629
20737,90406.72532573855,1671368726.497,510,132930,75629
20738,90406.73313312714,1671368726.497,512,132946,75629
20738,90406.74094051574,1671368726.497,512,132946,75629
20739,90406.74874790433,1671368726.497,511,132968,75617
20739,90406.75655529293,1671368726.497,511,132968,75617
20740,90406.76436268153,1671368726.497,512,132986,75649
20740,90406.77217007012,1671368726.497,512,132986,75649
20741,90406.77997745872,1671368726.497,511,132992,75605
20741,90406.78778484731,1671368726.497,511,132992,75605
20742,90406.79559223591,1671368726.569,512,133036,75619
20742,90406.8033996245,1671368726.569,512,133036,75619
20743,90406.8112070131,1671368726.569,512,133065,75639
20743,90406.8190144017,1671368726.569,512,133065,75639
20744,90406.83207728685,1671368726.569,514,133048,75626
20744,90406.83845521275,1671368726.569,514,133048,75626
20745,90406.84483313866,1671368726.569,512,133010,75636
20745,90406.85121106457,1671368726.569,512,133010,75636
20746,90406.85758899048,1671368726.569,512,133050,75658
20746,90406.86396691638,1671368726.569,512,133050,75658
20747,90406.87034484229,1671368726.569,511,133082,75648
20747,90406.8767227682,1671368726.569,511,133082,75648
20748,90406.8831006941,1671368726.665,512,133106,75664
20748,90406.88947862001,1671368726.665,512,133106,75664
20749,90406.89585654592,1671368726.665,512,133131,75670
20749,90406.90223447183,1671368726.665,512,133131,75670
20750,90406.90861239773,1671368726.665,512,133146,75662
20750,90406.91499032364,1671368726.665,512,133146,75662
20751,90406.92136824955,1671368726.665,514,133155,75665
20751,90406.92774617545,1671368726.665,514,133155,75665
20752,90406.93412410136,1671368726.665,512,133153,75674
20752,90406.94050202727,1671368726.665,512,133153,75674
20753,90406.94687995318,1671368726.665,511,133205,75673
20753,90406.95325787908,1671368726.665,511,133205,75673
20754,90406.97683236045,1671368726.761,514,133161,75677
20754,90406.98431755193,1671368726.761,514,133161,75677
20755,90406.99180274342,1671368726.761,512,133260,75675
20755,90406.9992879349,1671368726.761,512,133260,75675
20756,90407.00677312638,1671368726.761,512,133201,75691
20756,90407.01425831787,1671368726.761,512,133201,75691
20757,90407.02174350935,1671368726.761,512,133304,75679
20757,90407.02922870083,1671368726.761,512,133304,75679
20758,90407.03671389232,1671368726.761,512,133263,75694
20758,90407.0441990838,1671368726.761,512,133263,75694
20759,90407.05168427528,1671368726.761,512,133272,75688
20759,90407.05916946677,1671368726.761,512,133272,75688
20760,90407.06665465825,1671368726.853,511,133270,75679
20760,90407.07413984973,1671368726.853,511,133270,75679
20761,90407.08162504122,1671368726.853,514,133339,75692
20761,90407.0891102327,1671368726.853,514,133339,75692
20762,90407.09659542418,1671368726.853,511,133321,75709
20762,90407.10408061567,1671368726.853,511,133321,75709
20763,90407.11156580715,1671368726.853,511,133369,75729
20763,90407.11905099863,1671368726.853,511,133369,75729
20764,90407.13455938206,1671368726.853,512,133349,75728
20764,90407.14180260352,1671368726.853,512,133349,75728
20765,90407.14904582499,1671368726.853,511,133311,75708
20765,90407.15628904646,1671368726.853,511,133311,75708
20766,90407.16353226792,1671368726.945,511,133207,75648
20766,90407.17077548939,1671368726.945,511,133207,75648
20767,90407.17801871085,1671368726.945,514,133068,75590
20767,90407.18526193232,1671368726.945,514,133068,75590
20768,90407.19250515378,1671368726.945,512,132913,75547
20768,90407.19974837525,1671368726.945,512,132913,75547
20769,90407.20699159671,1671368726.945,511,132852,75514
20769,90407.21423481818,1671368726.945,511,132852,75514
20770,90407.22147803965,1671368726.945,512,132732,75517
20770,90407.22872126111,1671368726.945,512,132732,75517
20771,90407.23596448258,1671368726.945,510,132708,75494
20771,90407.24320770404,1671368726.945,510,132708,75494
20772,90407.25045092551,1671368727.043,512,132623,75465
20772,90407.25769414697,1671368727.043,512,132623,75465
20773,90407.26493736844,1671368727.043,512,132591,75483
20773,90407.2721805899,1671368727.043,512,132591,75483
20774,90407.29012302673,1671368727.043,511,132692,75464
20774,90407.29765177892,1671368727.043,511,132692,75464
20775,90407.30518053111,1671368727.043,514,132671,75467
20775,90407.3127092833,1671368727.043,514,132671,75467
20776,90407.32023803549,1671368727.043,511,132631,75451
20776,90407.32776678768,1671368727.043,511,132631,75451
20777,90407.33529553987,1671368727.043,512,132621,75459
20777,90407.34282429206,1671368727.043,512,132621,75459
20778,90407.35035304425,1671368727.137,512,132658,75461
20778,90407.35788179644,1671368727.137,512,132658,75461
20779,90407.36541054863,1671368727.137,510,132603,75467
20779,90407.37293930083,1671368727.137,510,132603,75467
20780,90407.38046805302,1671368727.137,512,132657,75430
20780,90407.3879968052,1671368727.137,512,132657,75430
20781,90407.3955255574,1671368727.137,509,132641,75450
20781,90407.40305430959,1671368727.137,509,132641,75450
20782,90407.41058306178,1671368727.137,512,132616,75463
20782,90407.41811181397,1671368727.137,512,132616,75463
20783,90407.42564056616,1671368727.137,512,132674,75438
20783,90407.43316931835,1671368727.137,512,132674,75438
20784,90407.44901111208,1671368727.231,512,132617,75431
20784,90407.45632124509,1671368727.231,512,132617,75431
20785,90407.4636313781,1671368727.231,511,132620,75430
20785,90407.4709415111,1671368727.231,511,132620,75430
20786,90407.4782516441,1671368727.231,514,132597,75426
20786,90407.48556177711,1671368727.231,514,132597,75426
20787,90407.49287191012,1671368727.231,510,132627,75396
20787,90407.50018204312,1671368727.231,510,132627,75396
20788,90407.50749217613,1671368727.231,511,132581,75383
20788,90407.51480230913,1671368727.231,511,132581,75383
20789,90407.52211244214,1671368727.231,511,132537,75390
20789,90407.52942257514,1671368727.231,511,132537,75390
20790,90407.53673270815,1671368727.324,510,132516,75378
20790,90407.54404284115,1671368727.324,510,132516,75378
20791,90407.55135297416,1671368727.324,514,132528,75394
20791,90407.55866310716,1671368727.324,514,132528,75394
20792,90407.56597324017,1671368727.324,511,132533,75364
20792,90407.57328337317,1671368727.324,511,132533,75364
20793,90407.58059350618,1671368727.324,512,132612,75397
20793,90407.58790363919,1671368727.324,512,132612,75397
20794,90407.60507896043,1671368727.324,512,132481,75365
20794,90407.61237443064,1671368727.324,512,132481,75365
20795,90407.61966990084,1671368727.324,512,132573,75386
20795,90407.62696537105,1671368727.324,512,132573,75386
20796,90407.63426084125,1671368727.411,512,132571,75404
20796,90407.64155631146,1671368727.411,512,132571,75404
20797,90407.64885178166,1671368727.411,511,132579,75402
20797,90407.65614725187,1671368727.411,511,132579,75402
20798,90407.66344272207,1671368727.411,512,132546,75394
20798,90407.67073819228,1671368727.411,512,132546,75394
20799,90407.67803366248,1671368727.411,514,132639,75391
20799,90407.68532913268,1671368727.411,514,132639,75391
20800,90407.69262460289,1671368727.411,512,132670,75406
20800,90407.6999200731,1671368727.411,512,132670,75406
20801,90407.7072155433,1671368727.411,511,132680,75414
20801,90407.7145110135,1671368727.411,511,132680,75414
20802,90407.7218064837,1671368727.515,512,132640,75413
20802,90407.72910195391,1671368727.515,512,132640,75413
20803,90407.73639742412,1671368727.515,511,132666,75430
20803,90407.74369289432,1671368727.515,511,132666,75430
20804,90407.75798139219,1671368727.515,510,132719,75427
20804,90407.76568880834,1671368727.515,510,132719,75427
20805,90407.7733962245,1671368727.515,511,132724,75420
20805,90407.78110364065,1671368727.515,511,132724,75420
20806,90407.7888110568,1671368727.515,512,132721,75436
20806,90407.79651847295,1671368727.515,512,132721,75436
20807,90407.80422588911,1671368727.515,514,132779,75424
20807,90407.81193330526,1671368727.515,514,132779,75424
20808,90407.81964072141,1671368727.604,512,132767,75428
20808,90407.82734813757,1671368727.604,512,132767,75428
20809,90407.83505555372,1671368727.604,511,132732,75427
20809,90407.84276296987,1671368727.604,511,132732,75427
20810,90407.85047038602,1671368727.604,511,132806,75461
20810,90407.85817780218,1671368727.604,511,132806,75461
20811,90407.86588521833,1671368727.604,510,132765,75443
20811,90407.87359263448,1671368727.604,510,132765,75443
20812,90407.88130005063,1671368727.604,511,132829,75448
20812,90407.88900746679,1671368727.604,511,132829,75448
20813,90407.89671488294,1671368727.604,510,132878,75440
20813,90407.90442229909,1671368727.604,510,132878,75440
20814,90407.91579532762,1671368727.71,511,132843,75436
20814,90407.92279498136,1671368727.71,511,132843,75436
20815,90407.92979463511,1671368727.71,514,132621,75379
20815,90407.93679428886,1671368727.71,514,132621,75379
20816,90407.94379394261,1671368727.71,512,132572,75317
20816,90407.95079359636,1671368727.71,512,132572,75317
20817,90407.95779325011,1671368727.71,511,132462,75293
20817,90407.96479290386,1671368727.71,511,132462,75293
20818,90407.97179255761,1671368727.71,510,132294,75257
20818,90407.97879221136,1671368727.71,510,132294,75257
20819,90407.98579186511,1671368727.71,510,132166,75242
20819,90407.99279151886,1671368727.71,510,132166,75242
20820,90407.99979117261,1671368727.795,510,132229,75226
20820,90408.00679082636,1671368727.795,510,132229,75226
20821,90408.01379048011,1671368727.795,510,132141,75217
20821,90408.02079013386,1671368727.795,510,132141,75217
20822,90408.02778978761,1671368727.795,511,132126,75207
20822,90408.03478944136,1671368727.795,511,132126,75207
20823,90408.0417890951,1671368727.795,511,132153,75201
20823,90408.04878874886,1671368727.795,511,132153,75201
20824,90408.07826995947,1671368727.795,512,132130,75187
20824,90408.08507499588,1671368727.795,512,132130,75187
20825,90408.09188003228,1671368727.795,512,132110,75176
20825,90408.09868506869,1671368727.795,512,132110,75176
20826,90408.1054901051,1671368727.889,511,131835,75164
20826,90408.1122951415,1671368727.889,511,131835,75164
20827,90408.11910017791,1671368727.889,512,131836,75173
20827,90408.12590521431,1671368727.889,512,131836,75173
20828,90408.13271025072,1671368727.889,511,131783,75171
20828,90408.13951528713,1671368727.889,511,131783,75171
20829,90408.14632032353,1671368727.889,512,131732,75178
20829,90408.15312535994,1671368727.889,512,131732,75178
20830,90408.15993039634,1671368727.889,511,132110,75172
20830,90408.16673543275,1671368727.889,511,132110,75172
20831,90408.17354046916,1671368727.889,512,132117,75175
20831,90408.18034550556,1671368727.889,512,132117,75175
20832,90408.18715054197,1671368727.979,512,131820,75173
20832,90408.19395557838,1671368727.979,512,131820,75173
20833,90408.20076061478,1671368727.979,511,131801,75153
20833,90408.20756565119,1671368727.979,511,131801,75153
20834,90408.23073416238,1671368727.979,511,131801,75135
20834,90408.23784742819,1671368727.979,511,131801,75135
20835,90408.24496069399,1671368727.979,510,131753,75132
20835,90408.2520739598,1671368727.979,510,131753,75132
20836,90408.2591872256,1671368727.979,512,131701,75134
20836,90408.2663004914,1671368727.979,512,131701,75134
20837,90408.27341375721,1671368727.979,511,131699,75122
20837,90408.28052702302,1671368727.979,511,131699,75122
20838,90408.28764028882,1671368728.069,511,131731,75113
20838,90408.29475355463,1671368728.069,511,131731,75113
20839,90408.30186682043,1671368728.069,512,131666,75104
20839,90408.30898008624,1671368728.069,512,131666,75104
20840,90408.31609335204,1671368728.069,511,131712,75118
20840,90408.32320661785,1671368728.069,511,131712,75118
20841,90408.33031988365,1671368728.069,511,131713,75105
20841,90408.33743314946,1671368728.069,511,131713,75105
20842,90408.34454641526,1671368728.069,512,131761,75111
20842,90408.35165968107,1671368728.069,512,131761,75111
20843,90408.35877294687,1671368728.069,511,131719,75115
20843,90408.36588621268,1671368728.069,511,131719,75115
20844,90408.38029552792,1671368728.166,511,131734,75108
20844,90408.38730354421,1671368728.166,511,131734,75108
20845,90408.39431156049,1671368728.166,511,131771,75145
20845,90408.40131957678,1671368728.166,511,131771,75145
20846,90408.40832759306,1671368728.166,512,131812,75128
20846,90408.41533560934,1671368728.166,512,131812,75128
20847,90408.42234362563,1671368728.166,511,131812,75127
20847,90408.42935164191,1671368728.166,511,131812,75127
20848,90408.4363596582,1671368728.166,512,131787,75120
20848,90408.44336767448,1671368728.166,512,131787,75120
20849,90408.45037569077,1671368728.166,514,131809,75149
20849,90408.45738370705,1671368728.166,514,131809,75149
20850,90408.46439172333,1671368728.263,511,131772,75139
20850,90408.47139973962,1671368728.263,511,131772,75139
20851,90408.4784077559,1671368728.263,510,131815,75137
20851,90408.48541577219,1671368728.263,510,131815,75137
20852,90408.49242378847,1671368728.263,510,132102,75159
20852,90408.49943180475,1671368728.263,510,132102,75159
20853,90408.50643982104,1671368728.263,509,132141,75169
20853,90408.51344783732,1671368728.263,509,132141,75169
20854,90408.54303919408,1671368728.263,511,132184,75179
20854,90408.55063089472,1671368728.263,511,132184,75179
20855,90408.55822259537,1671368728.263,512,132260,75165
20855,90408.56581429602,1671368728.263,512,132260,75165
20856,90408.57340599666,1671368728.386,511,132159,75173
20856,90408.58099769731,1671368728.386,511,132159,75173
20857,90408.58858939796,1671368728.386,510,132174,75169
20857,90408.5961810986,1671368728.386,510,132174,75169
20858,90408.60377279925,1671368728.386,512,132208,75169
20858,90408.6113644999,1671368728.386,512,132208,75169
20859,90408.61895620055,1671368728.386,510,132169,75159
20859,90408.62654790119,1671368728.386,510,132169,75159
20860,90408.63413960184,1671368728.386,510,132181,75179
20860,90408.64173130249,1671368728.386,510,132181,75179
20861,90408.64932300313,1671368728.386,511,132196,75181
20861,90408.65691470378,1671368728.386,511,132196,75181
20862,90408.66450640443,1671368728.445,512,132224,75182
20862,90408.67209810507,1671368728.445,512,132224,75182
20863,90408.67968980572,1671368728.445,512,132331,75190
20863,90408.68728150637,1671368728.445,512,132331,75190
20864,90408.71710541596,1671368728.445,511,132339,75197
20864,90408.72321612758,1671368728.445,511,132339,75197
20865,90408.7293268392,1671368728.445,514,132316,75209
20865,90408.73543755081,1671368728.445,514,132316,75209
20866,90408.74154826243,1671368728.445,514,132337,75197
20866,90408.74765897405,1671368728.445,514,132337,75197
20867,90408.75376968567,1671368728.445,514,132280,75176
20867,90408.7598803973,1671368728.445,514,132280,75176
20868,90408.76599110891,1671368728.541,514,131752,75111
20868,90408.77210182053,1671368728.541,514,131752,75111
20869,90408.77821253215,1671368728.541,511,131697,75065
20869,90408.78432324377,1671368728.541,511,131697,75065
20870,90408.7904339554,1671368728.541,514,131618,75051
20870,90408.79654466701,1671368728.541,514,131618,75051
20871,90408.80265537863,1671368728.541,512,131527,75020
20871,90408.80876609025,1671368728.541,512,131527,75020
20872,90408.81487680187,1671368728.541,512,131405,74997
20872,90408.82098751349,1671368728.541,512,131405,74997
20873,90408.82709822511,1671368728.541,511,131409,75002
20873,90408.83320893673,1671368728.541,511,131409,75002
20874,90408.8529121365,1671368728.637,514,131316,74994
20874,90408.8603341032,1671368728.637,514,131316,74994
20875,90408.8677560699,1671368728.637,511,131301,74967
20875,90408.8751780366,1671368728.637,511,131301,74967
20876,90408.8826000033,1671368728.637,511,131345,74956
20876,90408.89002197,1671368728.637,511,131345,74956
20877,90408.8974439367,1671368728.637,512,131297,74959
20877,90408.9048659034,1671368728.637,512,131297,74959
20878,90408.9122878701,1671368728.637,512,131219,74942
20878,90408.9197098368,1671368728.637,512,131219,74942
20879,90408.9271318035,1671368728.637,512,131229,74941
20879,90408.9345537702,1671368728.637,512,131229,74941
20880,90408.9419757369,1671368728.73,511,131225,74940
20880,90408.9493977036,1671368728.73,511,131225,74940
20881,90408.9568196703,1671368728.73,511,131223,74915
20881,90408.964241637,1671368728.73,511,131223,74915
20882,90408.9716636037,1671368728.73,511,131196,74906
20882,90408.9790855704,1671368728.73,511,131196,74906
20883,90408.9865075371,1671368728.73,511,131232,74916
20883,90408.9939295038,1671368728.73,511,131232,74916
20884,90409.01061370893,1671368728.73,511,131199,74908
20884,90409.0178862462,1671368728.73,511,131199,74908
20885,90409.02515878348,1671368728.73,511,131217,74897
20885,90409.03243132075,1671368728.73,511,131217,74897
20886,90409.03970385803,1671368728.821,512,131163,74900
20886,90409.0469763953,1671368728.821,512,131163,74900
20887,90409.05424893257,1671368728.821,512,131175,74897
20887,90409.06152146985,1671368728.821,512,131175,74897
20888,90409.06879400712,1671368728.821,511,131183,74871
20888,90409.0760665444,1671368728.821,511,131183,74871
20889,90409.08333908167,1671368728.821,511,131138,74880
20889,90409.09061161894,1671368728.821,511,131138,74880
20890,90409.09788415622,1671368728.821,510,131126,74870
20890,90409.10515669349,1671368728.821,510,131126,74870
20891,90409.11242923076,1671368728.821,512,131080,74860
20891,90409.11970176804,1671368728.821,512,131080,74860
20892,90409.12697430531,1671368728.926,511,131052,74849
20892,90409.13424684259,1671368728.926,511,131052,74849
20893,90409.14151937986,1671368728.926,510,131065,74875
20893,90409.14879191713,1671368728.926,510,131065,74875
20894,90409.16836337472,1671368728.926,510,131086,74854
20894,90409.17624761586,1671368728.926,510,131086,74854
20895,90409.18413185701,1671368728.926,511,131106,74869
20895,90409.19201609815,1671368728.926,511,131106,74869
20896,90409.1999003393,1671368728.926,512,131077,74864
20896,90409.20778458045,1671368728.926,512,131077,74864
20897,90409.21566882159,1671368728.926,512,131078,74877
20897,90409.22355306274,1671368728.926,512,131078,74877
20898,90409.23143730388,1671368729.011,514,131117,74884
20898,90409.23932154503,1671368729.011,514,131117,74884
20899,90409.24720578617,1671368729.011,511,131104,74876
20899,90409.25509002732,1671368729.011,511,131104,74876
20900,90409.26297426847,1671368729.011,512,131126,74879
20900,90409.27085850961,1671368729.011,512,131126,74879
20901,90409.27874275076,1671368729.011,510,131143,74881
20901,90409.2866269919,1671368729.011,510,131143,74881
20902,90409.29451123305,1671368729.011,512,131157,74897
20902,90409.3023954742,1671368729.011,512,131157,74897
20903,90409.31027971534,1671368729.011,512,131164,74909
20903,90409.31816395649,1671368729.011,512,131164,74909
20904,90409.32196985482,1671368729.107,511,131171,74908
20904,90409.32862572424,1671368729.107,511,131171,74908
20905,90409.33528159367,1671368729.107,512,131167,74923
20905,90409.34193746309,1671368729.107,512,131167,74923
20906,90409.34859333251,1671368729.107,511,131229,74909
20906,90409.35524920194,1671368729.107,511,131229,74909
20907,90409.36190507136,1671368729.107,512,131256,74943
20907,90409.36856094078,1671368729.107,512,131256,74943
20908,90409.37521681021,1671368729.107,511,131216,74933
20908,90409.38187267963,1671368729.107,511,131216,74933
20909,90409.38852854905,1671368729.107,511,131260,74931
20909,90409.39518441848,1671368729.107,511,131260,74931
20910,90409.4018402879,1671368729.19,511,131301,74952
20910,90409.40849615732,1671368729.19,511,131301,74952
20911,90409.41515202675,1671368729.19,512,131263,74969
20911,90409.42180789617,1671368729.19,512,131263,74969
20912,90409.4284637656,1671368729.19,511,131351,74954
20912,90409.43511963502,1671368729.19,511,131351,74954
20913,90409.44177550444,1671368729.19,512,131304,74980
20913,90409.44843137386,1671368729.19,512,131304,74980
20914,90409.4735473996,1671368729.19,511,131377,74989
20914,90409.48011987656,1671368729.19,511,131377,74989
20915,90409.48669235353,1671368729.19,511,131321,74985
20915,90409.4932648305,1671368729.19,511,131321,74985
20916,90409.49983730746,1671368729.29,511,131287,75009
20916,90409.50640978443,1671368729.29,511,131287,75009
20917,90409.5129822614,1671368729.29,511,131345,74980
20917,90409.51955473836,1671368729.29,511,131345,74980
20918,90409.52612721533,1671368729.29,510,131429,75019
20918,90409.5326996923,1671368729.29,510,131429,75019
20919,90409.53927216926,1671368729.29,512,131422,75009
20919,90409.54584464623,1671368729.29,512,131422,75009
20920,90409.5524171232,1671368729.29,512,131444,75009
20920,90409.55898960016,1671368729.29,512,131444,75009
20921,90409.56556207713,1671368729.29,512,131449,75024
20921,90409.5721345541,1671368729.29,512,131449,75024
20922,90409.57870703106,1671368729.388,510,131488,75051
20922,90409.58527950803,1671368729.388,510,131488,75051
20923,90409.591851985,1671368729.388,511,131506,75058
20923,90409.59842446196,1671368729.388,511,131506,75058
20924,90409.63496735436,1671368729.388,512,131498,75049
20924,90409.64267643537,1671368729.388,512,131498,75049
20925,90409.65038551638,1671368729.388,511,131458,75048
20925,90409.65809459738,1671368729.388,511,131458,75048
20926,90409.66580367839,1671368729.388,510,131426,75029
20926,90409.6735127594,1671368729.388,510,131426,75029
20927,90409.68122184041,1671368729.388,512,131296,74965
20927,90409.68893092142,1671368729.388,512,131296,74965
20928,90409.69664000242,1671368729.479,511,131182,74940
20928,90409.70434908343,1671368729.479,511,131182,74940
20929,90409.71205816444,1671368729.479,512,131063,74894
20929,90409.71976724545,1671368729.479,512,131063,74894
20930,90409.72747632646,1671368729.479,514,130952,74883
20930,90409.73518540747,1671368729.479,514,130952,74883
20931,90409.74289448847,1671368729.479,511,130936,74883
20931,90409.75060356948,1671368729.479,511,130936,74883
20932,90409.75831265049,1671368729.479,511,130893,74879
20932,90409.7660217315,1671368729.479,511,130893,74879
20933,90409.7737308125,1671368729.479,511,130808,74831
20933,90409.78143989352,1671368729.479,511,130808,74831
20934,90409.79042120662,1671368729.568,511,130793,74853
20934,90409.7975099907,1671368729.568,511,130793,74853
20935,90409.80459877479,1671368729.568,510,130745,74824
20935,90409.81168755887,1671368729.568,510,130745,74824
20936,90409.81877634296,1671368729.568,511,130735,74817
20936,90409.82586512704,1671368729.568,511,130735,74817
20937,90409.83295391113,1671368729.568,511,130750,74810
20937,90409.84004269521,1671368729.568,511,130750,74810
20938,90409.8471314793,1671368729.568,512,130677,74809
20938,90409.85422026338,1671368729.568,512,130677,74809
20939,90409.86130904747,1671368729.568,511,130684,74781
20939,90409.86839783155,1671368729.568,511,130684,74781
20940,90409.87548661564,1671368729.664,512,130732,74812
20940,90409.88257539972,1671368729.664,512,130732,74812
20941,90409.88966418381,1671368729.664,510,130609,74802
20941,90409.89675296789,1671368729.664,510,130609,74802
20942,90409.90384175198,1671368729.664,510,130674,74804
20942,90409.91093053606,1671368729.664,510,130674,74804
20943,90409.91801932015,1671368729.664,511,130679,74801
20943,90409.92510810423,1671368729.664,511,130679,74801
20944,90409.94404402937,1671368729.664,512,130651,74776
20944,90409.95152804801,1671368729.664,512,130651,74776
20945,90409.95901206665,1671368729.664,515,130596,74788
20945,90409.9664960853,1671368729.664,515,130596,74788
20946,90409.97398010394,1671368729.76,510,130652,74789
20946,90409.98146412258,1671368729.76,510,130652,74789
20947,90409.98894814122,1671368729.76,512,130591,74783
20947,90409.99643215987,1671368729.76,512,130591,74783
20948,90410.00391617851,1671368729.76,512,130549,74768
20948,90410.01140019715,1671368729.76,512,130549,74768
20949,90410.0188842158,1671368729.76,509,130621,74776
20949,90410.02636823444,1671368729.76,509,130621,74776
20950,90410.03385225308,1671368729.76,509,130560,74752
20950,90410.04133627172,1671368729.76,509,130560,74752
20951,90410.04882029037,1671368729.76,510,130515,74772
20951,90410.05630430901,1671368729.76,510,130515,74772
20952,90410.06378832765,1671368729.853,511,130548,74767
20952,90410.0712723463,1671368729.853,511,130548,74767
20953,90410.07875636494,1671368729.853,511,130626,74770
20953,90410.08624038358,1671368729.853,511,130626,74770
20954,90410.10299362878,1671368729.853,511,130554,74780
20954,90410.1103687239,1671368729.853,511,130554,74780
20955,90410.117743819,1671368729.853,512,130583,74794
20955,90410.12511891412,1671368729.853,512,130583,74794
20956,90410.13249400923,1671368729.853,512,130589,74797
20956,90410.13986910434,1671368729.853,512,130589,74797
20957,90410.14724419946,1671368729.853,511,130636,74768
20957,90410.15461929457,1671368729.853,511,130636,74768
20958,90410.16199438968,1671368729.942,512,130601,74817
20958,90410.16936948479,1671368729.942,512,130601,74817
20959,90410.1767445799,1671368729.942,511,130663,74801
20959,90410.18411967502,1671368729.942,511,130663,74801
20960,90410.19149477013,1671368729.942,511,130638,74795
20960,90410.19886986524,1671368729.942,511,130638,74795
20961,90410.20624496035,1671368729.942,512,130664,74790
20961,90410.21362005547,1671368729.942,512,130664,74790
20962,90410.22099515058,1671368729.942,511,130681,74841
20962,90410.22837024569,1671368729.942,511,130681,74841
20963,90410.2357453408,1671368729.942,510,130649,74826
20963,90410.24312043592,1671368729.942,510,130649,74826
20964,90410.2536724584,1671368730.041,511,130736,74838
20964,90410.26060622791,1671368730.041,511,130736,74838
20965,90410.26753999741,1671368730.041,509,130761,74877
20965,90410.27447376691,1671368730.041,509,130761,74877
20966,90410.28140753641,1671368730.041,512,130716,74863
20966,90410.28834130592,1671368730.041,512,130716,74863
20967,90410.29527507542,1671368730.041,510,130761,74826
20967,90410.30220884492,1671368730.041,510,130761,74826
20968,90410.30914261442,1671368730.041,511,130773,74869
20968,90410.31607638393,1671368730.041,511,130773,74869
20969,90410.32301015343,1671368730.041,512,130773,74861
20969,90410.32994392293,1671368730.041,512,130773,74861
20970,90410.33687769243,1671368730.14,510,130785,74897
20970,90410.34381146193,1671368730.14,510,130785,74897
20971,90410.35074523144,1671368730.14,512,130785,74906
20971,90410.35767900094,1671368730.14,512,130785,74906
20972,90410.36461277044,1671368730.14,511,130814,74907
20972,90410.37154653994,1671368730.14,511,130814,74907
20973,90410.37848030945,1671368730.14,510,130849,74929
20973,90410.38541407895,1671368730.14,510,130849,74929
20974,90410.4196731282,1671368730.14,511,130860,74917
20974,90410.42741048735,1671368730.14,511,130860,74917
20975,90410.4351478465,1671368730.14,511,130837,74930
20975,90410.44288520564,1671368730.14,511,130837,74930
20976,90410.4506225648,1671368730.228,514,130950,74951
20976,90410.45835992394,1671368730.228,514,130950,74951
20977,90410.46609728309,1671368730.228,512,130911,74942
20977,90410.47383464224,1671368730.228,512,130911,74942
20978,90410.48157200139,1671368730.228,512,130941,74970
20978,90410.48930936054,1671368730.228,512,130941,74970
20979,90410.49704671968,1671368730.228,512,130945,74972
20979,90410.50478407883,1671368730.228,512,130945,74972
20980,90410.51252143798,1671368730.228,512,130952,74968
20980,90410.52025879713,1671368730.228,512,130952,74968
20981,90410.52799615628,1671368730.228,510,131005,74982
20981,90410.53573351543,1671368730.228,510,131005,74982
20982,90410.54347087457,1671368730.328,511,131015,74992
20982,90410.55120823372,1671368730.328,511,131015,74992
20983,90410.55894559287,1671368730.328,510,130985,74993
20983,90410.56668295202,1671368730.328,510,130985,74993
20984,90410.57316103787,1671368730.328,511,131080,75019
20984,90410.58068878809,1671368730.328,511,131080,75019
20985,90410.58821653831,1671368730.328,511,131085,75005
20985,90410.59574428853,1671368730.328,511,131085,75005
20986,90410.60327203874,1671368730.328,511,131087,75050
20986,90410.61079978896,1671368730.328,511,131087,75050
20987,90410.61832753918,1671368730.328,512,131145,75019
20987,90410.6258552894,1671368730.328,512,131145,75019
20988,90410.63338303962,1671368730.43,512,131075,74995
20988,90410.64091078984,1671368730.43,512,131075,74995
20989,90410.64843854005,1671368730.43,509,130911,74952
20989,90410.65596629027,1671368730.43,509,130911,74952
20990,90410.66349404049,1671368730.43,512,130746,74904
20990,90410.67102179071,1671368730.43,512,130746,74904
20991,90410.67854954093,1671368730.43,511,130707,74879
20991,90410.68607729115,1671368730.43,511,130707,74879
20992,90410.69360504136,1671368730.43,512,130586,74859
20992,90410.70113279158,1671368730.43,512,130586,74859
20993,90410.7086605418,1671368730.43,514,130618,74838
20993,90410.71618829202,1671368730.43,514,130618,74838
20994,90410.74255064066,1671368730.514,510,130478,74836
20994,90410.75051512156,1671368730.514,510,130478,74836
20995,90410.75847960246,1671368730.514,511,130469,74834
20995,90410.76644408336,1671368730.514,511,130469,74834
20996,90410.77440856426,1671368730.514,514,130484,74817
20996,90410.78237304516,1671368730.514,514,130484,74817
20997,90410.79033752606,1671368730.514,511,130433,74820
20997,90410.79830200697,1671368730.514,511,130433,74820
20998,90410.80626648787,1671368730.514,511,130465,74796
20998,90410.81423096877,1671368730.514,511,130465,74796
20999,90410.82219544967,1671368730.514,511,130416,74810
20999,90410.83015993057,1671368730.514,511,130416,74810
21000,90410.83812441147,1671368730.607,512,130403,74823
21000,90410.84608889237,1671368730.607,512,130403,74823
21001,90410.85405337327,1671368730.607,511,130427,74798
21001,90410.86201785418,1671368730.607,511,130427,74798
21002,90410.86998233508,1671368730.607,512,130345,74787
21002,90410.87794681598,1671368730.607,512,130345,74787
21003,90410.88591129688,1671368730.607,512,130440,74802
21003,90410.89387577778,1671368730.607,512,130440,74802
21004,90410.88808655037,1671368730.607,512,130384,74807
21004,90410.89529860907,1671368730.607,512,130384,74807
21005,90410.90251066777,1671368730.607,511,130328,74782
21005,90410.90972272647,1671368730.607,511,130328,74782
21006,90410.91693478517,1671368730.702,510,130337,74794
21006,90410.92414684387,1671368730.702,510,130337,74794
21007,90410.93135890257,1671368730.702,514,130360,74799
21007,90410.93857096127,1671368730.702,514,130360,74799
21008,90410.94578301997,1671368730.702,510,130319,74780
21008,90410.95299507867,1671368730.702,510,130319,74780
21009,90410.96020713737,1671368730.702,512,130263,74777
21009,90410.96741919607,1671368730.702,512,130263,74777
21010,90410.97463125476,1671368730.702,514,130335,74785
21010,90410.98184331346,1671368730.702,514,130335,74785
21011,90410.98905537216,1671368730.702,512,130286,74763
21011,90410.99626743086,1671368730.702,512,130286,74763
21012,90411.00347948956,1671368730.791,512,130269,74758
21012,90411.01069154826,1671368730.791,512,130269,74758
21013,90411.01790360696,1671368730.791,511,130287,74756
21013,90411.02511566566,1671368730.791,511,130287,74756
21014,90411.04335076336,1671368730.791,512,130287,74768
21014,90411.05042882203,1671368730.791,512,130287,74768
21015,90411.0575068807,1671368730.791,511,130284,74774
21015,90411.06458493936,1671368730.791,511,130284,74774
21016,90411.07166299803,1671368730.791,511,130313,74770
21016,90411.0787410567,1671368730.791,511,130313,74770
21017,90411.08581911537,1671368730.791,511,130347,74779
21017,90411.09289717404,1671368730.791,511,130347,74779
21018,90411.0999752327,1671368730.895,512,130338,74809
21018,90411.10705329137,1671368730.895,512,130338,74809
21019,90411.11413135004,1671368730.895,512,130315,74792
21019,90411.12120940871,1671368730.895,512,130315,74792
21020,90411.12828746738,1671368730.895,512,130279,74809
21020,90411.13536552605,1671368730.895,512,130279,74809
21021,90411.14244358471,1671368730.895,511,130281,74799
21021,90411.14952164338,1671368730.895,511,130281,74799
21022,90411.15659970205,1671368730.895,510,130347,74834
21022,90411.16367776072,1671368730.895,510,130347,74834
21023,90411.17075581939,1671368730.895,511,130381,74844
21023,90411.17783387806,1671368730.895,511,130381,74844
21024,90411.20758612992,1671368730.981,514,130346,74842
21024,90411.21568151623,1671368730.981,514,130346,74842
21025,90411.22377690254,1671368730.981,512,130426,74833
21025,90411.23187228884,1671368730.981,512,130426,74833
21026,90411.23996767515,1671368730.981,512,130425,74863
21026,90411.24806306146,1671368730.981,512,130425,74863
21027,90411.25615844777,1671368730.981,512,130435,74831
21027,90411.26425383407,1671368730.981,512,130435,74831
21028,90411.27234922038,1671368730.981,512,130515,74850
21028,90411.28044460669,1671368730.981,512,130515,74850
21029,90411.288539993,1671368730.981,511,130482,74857
21029,90411.2966353793,1671368730.981,511,130482,74857
21030,90411.30473076561,1671368731.066,511,130490,74886
21030,90411.31282615192,1671368731.066,511,130490,74886
21031,90411.32092153822,1671368731.066,510,130582,74870
21031,90411.32901692453,1671368731.066,510,130582,74870
21032,90411.33711231084,1671368731.066,512,130492,74900
21032,90411.34520769714,1671368731.066,512,130492,74900
21033,90411.35330308345,1671368731.066,511,130539,74912
21033,90411.36139846976,1671368731.066,511,130539,74912
21034,90411.34870323527,1671368731.066,512,130621,74897
21034,90411.35532327827,1671368731.066,512,130621,74897
21035,90411.36194332127,1671368731.066,514,130595,74926
21035,90411.36856336427,1671368731.066,514,130595,74926
21036,90411.37518340728,1671368731.165,512,130679,74917
21036,90411.38180345028,1671368731.165,512,130679,74917
21037,90411.38842349328,1671368731.165,512,130684,74930
21037,90411.39504353628,1671368731.165,512,130684,74930
21038,90411.40166357928,1671368731.165,512,130677,74938
21038,90411.40828362228,1671368731.165,512,130677,74938
21039,90411.41490366528,1671368731.165,511,130655,74949
21039,90411.42152370828,1671368731.165,511,130655,74949
21040,90411.42814375128,1671368731.165,514,130696,74956
21040,90411.43476379428,1671368731.165,514,130696,74956
21041,90411.44138383729,1671368731.165,512,130714,74972
21041,90411.44800388029,1671368731.165,512,130714,74972
21042,90411.45462392329,1671368731.264,511,130750,74966
21042,90411.46124396629,1671368731.264,511,130750,74966
21043,90411.46786400929,1671368731.264,514,130694,74972
21043,90411.47448405229,1671368731.264,514,130694,74972
21044,90411.51037845074,1671368731.264,511,130717,74976
21044,90411.51810600629,1671368731.264,511,130717,74976
21045,90411.52583356184,1671368731.264,514,130863,74967
21045,90411.5335611174,1671368731.264,514,130863,74967
21046,90411.54128867295,1671368731.264,512,130798,74978
21046,90411.5490162285,1671368731.264,512,130798,74978
21047,90411.55674378405,1671368731.264,511,130674,74941
21047,90411.5644713396,1671368731.264,511,130674,74941
21048,90411.57219889516,1671368731.369,511,130518,74882
21048,90411.57992645071,1671368731.369,511,130518,74882
21049,90411.58765400626,1671368731.369,511,130397,74841
21049,90411.59538156181,1671368731.369,511,130397,74841
21050,90411.60310911736,1671368731.369,511,130373,74822
21050,90411.61083667292,1671368731.369,511,130373,74822
21051,90411.61856422847,1671368731.369,511,130306,74829
21051,90411.62629178402,1671368731.369,511,130306,74829
21052,90411.63401933957,1671368731.369,511,130215,74802
21052,90411.64174689513,1671368731.369,511,130215,74802
21053,90411.64947445068,1671368731.369,511,130158,74806
21053,90411.65720200623,1671368731.369,511,130158,74806
21054,90411.68259692258,1671368731.446,511,130148,74784
21054,90411.69084377919,1671368731.446,511,130148,74784
21055,90411.6990906358,1671368731.446,511,130138,74788
21055,90411.70733749241,1671368731.446,511,130138,74788
21056,90411.71558434902,1671368731.446,512,130097,74761
21056,90411.72383120563,1671368731.446,512,130097,74761
21057,90411.73207806224,1671368731.446,511,130081,74748
21057,90411.74032491885,1671368731.446,511,130081,74748
21058,90411.74857177546,1671368731.446,512,129976,74767
21058,90411.75681863207,1671368731.446,512,129976,74767
21059,90411.76506548868,1671368731.446,514,130026,74749
21059,90411.77331234529,1671368731.446,514,130026,74749
21060,90411.7815592019,1671368731.539,512,130044,74738
21060,90411.78980605851,1671368731.539,512,130044,74738
21061,90411.79805291512,1671368731.539,511,129994,74742
21061,90411.80629977174,1671368731.539,511,129994,74742
21062,90411.81454662835,1671368731.539,511,129987,74747
21062,90411.82279348496,1671368731.539,511,129987,74747
21063,90411.83104034157,1671368731.539,510,130011,74744
21063,90411.83928719818,1671368731.539,510,130011,74744
21064,90411.82006140382,1671368731.539,512,130012,74718
21064,90411.82728391179,1671368731.539,512,130012,74718
21065,90411.83450641975,1671368731.539,512,130039,74737
21065,90411.84172892771,1671368731.539,512,130039,74737
21066,90411.84895143568,1671368731.642,512,130008,74720
21066,90411.85617394364,1671368731.642,512,130008,74720
21067,90411.8633964516,1671368731.642,512,129988,74726
21067,90411.87061895957,1671368731.642,512,129988,74726
21068,90411.87784146753,1671368731.642,511,130013,74709
21068,90411.8850639755,1671368731.642,511,130013,74709
21069,90411.89228648346,1671368731.642,511,129963,74708
21069,90411.89950899142,1671368731.642,511,129963,74708
21070,90411.90673149939,1671368731.642,511,129958,74722
21070,90411.91395400735,1671368731.642,511,129958,74722
21071,90411.92117651532,1671368731.642,511,129977,74698
21071,90411.92839902328,1671368731.642,511,129977,74698
21072,90411.93562153124,1671368731.729,511,129915,74712
21072,90411.94284403921,1671368731.729,511,129915,74712
21073,90411.95006654717,1671368731.729,511,129966,74696
21073,90411.95728905514,1671368731.729,511,129966,74696
21074,90411.9832522271,1671368731.729,511,129948,74703
21074,90411.99037158648,1671368731.729,511,129948,74703
21075,90411.99749094585,1671368731.729,512,129952,74718
21075,90412.00461030523,1671368731.729,512,129952,74718
21076,90412.0117296646,1671368731.729,514,130028,74716
21076,90412.01884902398,1671368731.729,514,130028,74716
21077,90412.02596838336,1671368731.729,511,130008,74729
21077,90412.03308774273,1671368731.729,511,130008,74729
21078,90412.04020710211,1671368731.821,510,129983,74727
21078,90412.04732646148,1671368731.821,510,129983,74727
21079,90412.05444582086,1671368731.821,508,130027,74731
21079,90412.06156518024,1671368731.821,508,130027,74731
21080,90412.06868453961,1671368731.821,510,130040,74749
21080,90412.07580389899,1671368731.821,510,130040,74749
21081,90412.08292325836,1671368731.821,510,130015,74745
21081,90412.09004261774,1671368731.821,510,130015,74745
21082,90412.09716197712,1671368731.821,511,130125,74758
21082,90412.10428133649,1671368731.821,511,130125,74758
21083,90412.11140069587,1671368731.821,512,130132,74770
21083,90412.11852005524,1671368731.821,512,130132,74770
21084,90412.13283471289,1671368731.915,512,130192,74793
21084,90412.14004265393,1671368731.915,512,130192,74793
21085,90412.14725059498,1671368731.915,511,130154,74777
21085,90412.15445853602,1671368731.915,511,130154,74777
21086,90412.16166647707,1671368731.915,511,130150,74812
21086,90412.16887441812,1671368731.915,511,130150,74812
21087,90412.17608235916,1671368731.915,511,130084,74805
21087,90412.1832903002,1671368731.915,511,130084,74805
21088,90412.19049824125,1671368731.915,510,130133,74803
21088,90412.1977061823,1671368731.915,510,130133,74803
21089,90412.20491412334,1671368731.915,511,130212,74823
21089,90412.21212206439,1671368731.915,511,130212,74823
21090,90412.21933000544,1671368732.005,512,130258,74840
21090,90412.22653794648,1671368732.005,512,130258,74840
21091,90412.23374588753,1671368732.005,512,130200,74827
21091,90412.24095382857,1671368732.005,512,130200,74827
21092,90412.24816176962,1671368732.005,512,130289,74851
21092,90412.25536971066,1671368732.005,512,130289,74851
21093,90412.26257765171,1671368732.005,511,130238,74834
21093,90412.26978559275,1671368732.005,511,130238,74834
21094,90412.28673590631,1671368732.005,511,130262,74837
21094,90412.29377660908,1671368732.005,511,130262,74837
21095,90412.30081731184,1671368732.005,510,130287,74848
21095,90412.30785801461,1671368732.005,510,130287,74848
21096,90412.31489871738,1671368732.11,511,130279,74874
21096,90412.32193942014,1671368732.11,511,130279,74874
21097,90412.32898012291,1671368732.11,511,130397,74876
21097,90412.33602082568,1671368732.11,511,130397,74876
21098,90412.34306152845,1671368732.11,512,130345,74877
21098,90412.35010223121,1671368732.11,512,130345,74877
21099,90412.35714293398,1671368732.11,511,130387,74885
21099,90412.36418363675,1671368732.11,511,130387,74885
21100,90412.37122433951,1671368732.11,511,130420,74906
21100,90412.37826504228,1671368732.11,511,130420,74906
21101,90412.38530574505,1671368732.11,514,130428,74899
21101,90412.39234644781,1671368732.11,514,130428,74899
21102,90412.39938715058,1671368732.196,511,130485,74911
21102,90412.40642785335,1671368732.196,511,130485,74911
21103,90412.41346855611,1671368732.196,510,130497,74914
21103,90412.42050925888,1671368732.196,510,130497,74914
21104,90412.45107593636,1671368732.196,512,130535,74947
21104,90412.45822130085,1671368732.196,512,130535,74947
21105,90412.46536666535,1671368732.196,511,130531,74955
21105,90412.47251202984,1671368732.196,511,130531,74955
21106,90412.47965739433,1671368732.196,512,130606,74967
21106,90412.48680275882,1671368732.196,512,130606,74967
21107,90412.49394812332,1671368732.196,512,130594,74971
21107,90412.50109348781,1671368732.196,512,130594,74971
21108,90412.5082388523,1671368732.293,514,130563,74961
21108,90412.5153842168,1671368732.293,514,130563,74961
21109,90412.52252958129,1671368732.293,512,130562,74928
21109,90412.52967494578,1671368732.293,512,130562,74928
21110,90412.53682031027,1671368732.293,512,130349,74879
21110,90412.54396567476,1671368732.293,512,130349,74879
21111,90412.55111103925,1671368732.293,514,130300,74842
21111,90412.55825640375,1671368732.293,514,130300,74842
21112,90412.56540176824,1671368732.293,511,130200,74813
21112,90412.57254713273,1671368732.293,511,130200,74813
21113,90412.57969249722,1671368732.293,510,130143,74796
21113,90412.58683786172,1671368732.293,510,130143,74796
21114,90412.60485436444,1671368732.39,511,130109,74778
21114,90412.612384132,1671368732.39,511,130109,74778
21115,90412.61991389954,1671368732.39,515,130014,74774
21115,90412.6274436671,1671368732.39,515,130014,74774
21116,90412.63497343464,1671368732.39,512,129986,74771
21116,90412.6425032022,1671368732.39,512,129986,74771
21117,90412.65003296974,1671368732.39,511,129958,74754
21117,90412.6575627373,1671368732.39,511,129958,74754
21118,90412.66509250485,1671368732.39,511,129992,74746
21118,90412.6726222724,1671368732.39,511,129992,74746
21119,90412.68015203995,1671368732.39,512,129878,74745
21119,90412.6876818075,1671368732.39,512,129878,74745
21120,90412.69521157505,1671368732.477,511,129880,74774
21120,90412.7027413426,1671368732.477,511,129880,74774
21121,90412.71027111015,1671368732.477,511,129875,74731
21121,90412.7178008777,1671368732.477,511,129875,74731
21122,90412.72533064525,1671368732.477,512,129863,74731
21122,90412.7328604128,1671368732.477,512,129863,74731
21123,90412.74039018035,1671368732.477,511,129871,74724
21123,90412.7479199479,1671368732.477,511,129871,74724
21124,90412.75967993608,1671368732.477,510,129794,74721
21124,90412.76654807219,1671368732.477,510,129794,74721
21125,90412.7734162083,1671368732.477,511,129905,74719
21125,90412.78028434442,1671368732.477,511,129905,74719
21126,90412.78715248054,1671368732.577,510,129873,74721
21126,90412.79402061665,1671368732.577,510,129873,74721
21127,90412.80088875277,1671368732.577,511,129847,74728
21127,90412.80775688888,1671368732.577,511,129847,74728
21128,90412.814625025,1671368732.577,511,129872,74734
21128,90412.82149316111,1671368732.577,511,129872,74734
21129,90412.82836129723,1671368732.577,512,129854,74730
21129,90412.83522943335,1671368732.577,512,129854,74730
21130,90412.84209756946,1671368732.577,512,129881,74708
21130,90412.84896570558,1671368732.577,512,129881,74708
21131,90412.85583384169,1671368732.577,511,129818,74700
21131,90412.8627019778,1671368732.577,511,129818,74700
21132,90412.86957011392,1671368732.665,512,129843,74694
21132,90412.87643825004,1671368732.665,512,129843,74694
21133,90412.88330638615,1671368732.665,512,129857,74707
21133,90412.89017452227,1671368732.665,512,129857,74707
21134,90412.9179428517,1671368732.665,509,129772,74712
21134,90412.92507653023,1671368732.665,509,129772,74712
21135,90412.93221020876,1671368732.665,511,129797,74697
21135,90412.9393438873,1671368732.665,511,129797,74697
21136,90412.94647756583,1671368732.665,510,129862,74713
21136,90412.95361124436,1671368732.665,510,129862,74713
21137,90412.9607449229,1671368732.665,510,129809,74697
21137,90412.96787860143,1671368732.665,510,129809,74697
21138,90412.97501227996,1671368732.762,510,129834,74722
21138,90412.9821459585,1671368732.762,510,129834,74722
21139,90412.98927963703,1671368732.762,510,129859,74733
21139,90412.99641331556,1671368732.762,510,129859,74733
21140,90413.00354699409,1671368732.762,512,129880,74737
21140,90413.01068067263,1671368732.762,512,129880,74737
21141,90413.01781435116,1671368732.762,512,129913,74734
21141,90413.02494802969,1671368732.762,512,129913,74734
21142,90413.03208170822,1671368732.762,510,129943,74741
21142,90413.03921538676,1671368732.762,510,129943,74741
21143,90413.04634906529,1671368732.762,510,129939,74749
21143,90413.05348274382,1671368732.762,510,129939,74749
21144,90413.07467957358,1671368732.858,509,130007,74766
21144,90413.08230004998,1671368732.858,509,130007,74766
21145,90413.08992052638,1671368732.858,511,129983,74776
21145,90413.09754100279,1671368732.858,511,129983,74776
21146,90413.1051614792,1671368732.858,511,130003,74768
21146,90413.1127819556,1671368732.858,511,130003,74768
21147,90413.120402432,1671368732.858,512,130104,74790
21147,90413.12802290841,1671368732.858,512,130104,74790
21148,90413.13564338481,1671368732.858,511,130025,74782
21148,90413.14326386122,1671368732.858,511,130025,74782
21149,90413.15088433762,1671368732.858,511,130065,74792
21149,90413.15850481403,1671368732.858,511,130065,74792
21150,90413.16612529043,1671368732.945,511,130058,74806
21150,90413.17374576684,1671368732.945,511,130058,74806
21151,90413.18136624324,1671368732.945,511,130102,74808
21151,90413.18898671964,1671368732.945,511,130102,74808
21152,90413.19660719605,1671368732.945,511,130126,74835
21152,90413.20422767245,1671368732.945,511,130126,74835
21153,90413.21184814886,1671368732.945,510,130132,74820
21153,90413.21946862526,1671368732.945,510,130132,74820
21154,90413.22762303942,1671368732.945,510,130098,74820
21154,90413.23448302546,1671368732.945,510,130098,74820
21155,90413.2413430115,1671368732.945,511,130210,74839
21155,90413.24820299754,1671368732.945,511,130210,74839
21156,90413.25506298358,1671368733.05,512,130190,74817
21156,90413.26192296961,1671368733.05,512,130190,74817
21157,90413.26878295565,1671368733.05,514,130193,74834
21157,90413.27564294169,1671368733.05,514,130193,74834
21158,90413.28250292773,1671368733.05,511,130270,74854
21158,90413.28936291377,1671368733.05,511,130270,74854
21159,90413.29622289981,1671368733.05,510,130291,74848
21159,90413.30308288585,1671368733.05,510,130291,74848
21160,90413.30994287189,1671368733.05,511,130247,74873
21160,90413.31680285792,1671368733.05,511,130247,74873
21161,90413.32366284396,1671368733.05,510,130291,74871
21161,90413.33052283,1671368733.05,510,130291,74871
21162,90413.33738281604,1671368733.141,511,130379,74882
21162,90413.34424280208,1671368733.141,511,130379,74882
21163,90413.35110278812,1671368733.141,510,130356,74884
21163,90413.35796277416,1671368733.141,510,130356,74884
21164,90413.3928080771,1671368733.141,510,130390,74905
21164,90413.40020951543,1671368733.141,510,130390,74905
21165,90413.40761095376,1671368733.141,510,130355,74900
21165,90413.41501239208,1671368733.141,510,130355,74900
21166,90413.42241383041,1671368733.141,510,130411,74902
21166,90413.42981526874,1671368733.141,510,130411,74902
21167,90413.43721670707,1671368733.141,510,130493,74935
21167,90413.4446181454,1671368733.141,510,130493,74935
21168,90413.45201958372,1671368733.229,512,130505,74942
21168,90413.45942102205,1671368733.229,512,130505,74942
21169,90413.46682246038,1671368733.229,509,130487,74930
21169,90413.47422389871,1671368733.229,509,130487,74930
21170,90413.48162533704,1671368733.229,512,130586,74957
21170,90413.48902677537,1671368733.229,512,130586,74957
21171,90413.4964282137,1671368733.229,512,130541,74966
21171,90413.50382965202,1671368733.229,512,130541,74966
21172,90413.51123109035,1671368733.229,511,130515,74938
21172,90413.51863252868,1671368733.229,511,130515,74938
21173,90413.526033967,1671368733.229,512,130443,74893
21173,90413.53343540533,1671368733.229,512,130443,74893
21174,90413.53996563217,1671368733.321,511,130295,74833
21174,90413.54682530584,1671368733.321,511,130295,74833
21175,90413.5536849795,1671368733.321,510,130208,74819
21175,90413.56054465317,1671368733.321,510,130208,74819
21176,90413.56740432684,1671368733.321,510,130112,74784
21176,90413.5742640005,1671368733.321,510,130112,74784
21177,90413.58112367417,1671368733.321,511,130047,74783
21177,90413.58798334784,1671368733.321,511,130047,74783
21178,90413.5948430215,1671368733.321,511,129968,74766
21178,90413.60170269517,1671368733.321,511,129968,74766
21179,90413.60856236884,1671368733.321,512,129983,74784
21179,90413.61542204251,1671368733.321,512,129983,74784
21180,90413.62228171618,1671368733.414,514,129999,74772
21180,90413.62914138984,1671368733.414,514,129999,74772
21181,90413.63600106351,1671368733.414,510,129929,74760
21181,90413.64286073718,1671368733.414,510,129929,74760
21182,90413.64972041085,1671368733.414,512,129967,74774
21182,90413.65658008451,1671368733.414,512,129967,74774
21183,90413.66343975818,1671368733.414,512,130027,74765
21183,90413.67029943185,1671368733.414,512,130027,74765
21184,90413.69497398662,1671368733.414,511,129950,74767
21184,90413.70221934361,1671368733.414,511,129950,74767
21185,90413.7094647006,1671368733.414,511,129909,74764
21185,90413.71671005759,1671368733.414,511,129909,74764
21186,90413.72395541458,1671368733.513,510,129942,74752
21186,90413.73120077157,1671368733.513,510,129942,74752
21187,90413.73844612855,1671368733.513,512,129909,74755
21187,90413.74569148554,1671368733.513,512,129909,74755
21188,90413.75293684253,1671368733.513,514,129951,74750
21188,90413.76018219952,1671368733.513,514,129951,74750
21189,90413.76742755651,1671368733.513,510,129930,74749
21189,90413.7746729135,1671368733.513,510,129930,74749
21190,90413.78191827048,1671368733.513,514,130008,74768
21190,90413.78916362747,1671368733.513,514,130008,74768
21191,90413.79640898446,1671368733.513,511,129978,74738
21191,90413.80365434145,1671368733.513,511,129978,74738
21192,90413.81089969844,1671368733.604,512,129933,74753
21192,90413.81814505543,1671368733.604,512,129933,74753
21193,90413.82539041241,1671368733.604,509,129957,74756
21193,90413.8326357694,1671368733.604,509,129957,74756
21194,90413.85502086888,1671368733.604,511,129987,74720
21194,90413.86231136529,1671368733.604,511,129987,74720
21195,90413.86960186169,1671368733.604,512,129917,74713
21195,90413.8768923581,1671368733.604,512,129917,74713
21196,90413.8841828545,1671368733.604,510,129918,74736
21196,90413.8914733509,1671368733.604,510,129918,74736
21197,90413.8987638473,1671368733.604,512,129988,74744
21197,90413.90605434371,1671368733.604,512,129988,74744
21198,90413.91334484011,1671368733.697,512,129989,74724
21198,90413.92063533652,1671368733.697,512,129989,74724
21199,90413.92792583292,1671368733.697,511,129948,74723
21199,90413.93521632932,1671368733.697,511,129948,74723
21200,90413.94250682573,1671368733.697,512,129940,74737
21200,90413.94979732213,1671368733.697,512,129940,74737
21201,90413.95708781853,1671368733.697,511,129919,74714
21201,90413.96437831494,1671368733.697,511,129919,74714
21202,90413.97166881134,1671368733.697,512,129981,74745
21202,90413.97895930774,1671368733.697,512,129981,74745
21203,90413.98624980415,1671368733.697,511,130033,74736
21203,90413.99354030055,1671368733.697,511,130033,74736
21204,90414.00860054806,1671368733.789,514,129983,74750
21204,90414.01586330071,1671368733.789,514,129983,74750
21205,90414.02312605336,1671368733.789,512,130031,74759
21205,90414.03038880602,1671368733.789,512,130031,74759
21206,90414.03765155867,1671368733.789,512,130015,74742
21206,90414.04491431132,1671368733.789,512,130015,74742
21207,90414.05217706398,1671368733.789,510,130071,74753
21207,90414.05943981663,1671368733.789,510,130071,74753
21208,90414.06670256928,1671368733.789,509,130012,74755
21208,90414.07396532194,1671368733.789,509,130012,74755
21209,90414.08122807459,1671368733.789,511,130100,74772
21209,90414.08849082724,1671368733.789,511,130100,74772
21210,90414.0957535799,1671368733.887,510,130032,74762
21210,90414.10301633255,1671368733.887,510,130032,74762
21211,90414.1102790852,1671368733.887,511,130208,74771
21211,90414.11754183786,1671368733.887,511,130208,74771
21212,90414.12480459051,1671368733.887,511,130142,74782
21212,90414.13206734316,1671368733.887,511,130142,74782
21213,90414.13933009582,1671368733.887,512,130189,74768
21213,90414.14659284847,1671368733.887,512,130189,74768
21214,90414.16658659509,1671368733.887,511,130170,74793
21214,90414.17418470273,1671368733.887,511,130170,74793
21215,90414.18178281037,1671368733.887,511,130187,74771
21215,90414.189380918,1671368733.887,511,130187,74771
21216,90414.19697902564,1671368733.983,511,130244,74790
21216,90414.20457713328,1671368733.983,511,130244,74790
21217,90414.21217524091,1671368733.983,511,130302,74812
21217,90414.21977334855,1671368733.983,511,130302,74812
21218,90414.22737145619,1671368733.983,511,130252,74796
21218,90414.23496956383,1671368733.983,511,130252,74796
21219,90414.24256767146,1671368733.983,512,130264,74822
21219,90414.2501657791,1671368733.983,512,130264,74822
21220,90414.25776388674,1671368733.983,512,130262,74805
21220,90414.26536199437,1671368733.983,512,130262,74805
21221,90414.27296010201,1671368733.983,511,130316,74812
21221,90414.28055820965,1671368733.983,511,130316,74812
21222,90414.28815631729,1671368734.07,512,130353,74815
21222,90414.29575442492,1671368734.07,512,130353,74815
21223,90414.30335253256,1671368734.07,512,130379,74810
21223,90414.3109506402,1671368734.07,512,130379,74810
21224,90414.32394778155,1671368734.07,510,130370,74844
21224,90414.3309224133,1671368734.07,510,130370,74844
21225,90414.33789704504,1671368734.07,511,130351,74845
21225,90414.34487167679,1671368734.07,511,130351,74845
21226,90414.35184630853,1671368734.07,512,130337,74838
21226,90414.35882094028,1671368734.07,512,130337,74838
21227,90414.36579557203,1671368734.07,512,130367,74865
21227,90414.37277020377,1671368734.07,512,130367,74865
21228,90414.37974483552,1671368734.161,512,130391,74862
21228,90414.38671946726,1671368734.161,512,130391,74862
21229,90414.39369409901,1671368734.161,511,130408,74856
21229,90414.40066873076,1671368734.161,511,130408,74856
21230,90414.4076433625,1671368734.161,511,130324,74825
21230,90414.41461799425,1671368734.161,511,130324,74825
21231,90414.421592626,1671368734.161,511,130215,74767
21231,90414.42856725774,1671368734.161,511,130215,74767
21232,90414.43554188948,1671368734.161,511,130089,74747
21232,90414.44251652123,1671368734.161,511,130089,74747
21233,90414.44949115298,1671368734.161,512,130031,74715
21233,90414.45646578472,1671368734.161,512,130031,74715
21234,90414.4729422911,1671368734.265,511,130009,74718
21234,90414.48008773135,1671368734.265,511,130009,74718
21235,90414.4872331716,1671368734.265,512,129956,74696
21235,90414.49437861185,1671368734.265,512,129956,74696
21236,90414.5015240521,1671368734.265,512,129943,74684
21236,90414.50866949235,1671368734.265,512,129943,74684
21237,90414.5158149326,1671368734.265,510,129886,74682
21237,90414.52296037285,1671368734.265,510,129886,74682
21238,90414.5301058131,1671368734.265,510,129918,74685
21238,90414.53725125335,1671368734.265,510,129918,74685
21239,90414.5443966936,1671368734.265,511,129916,74664
21239,90414.55154213385,1671368734.265,511,129916,74664
21240,90414.5586875741,1671368734.354,510,129869,74672
21240,90414.56583301435,1671368734.354,510,129869,74672
21241,90414.5729784546,1671368734.354,511,129934,74653
21241,90414.58012389485,1671368734.354,511,129934,74653
21242,90414.5872693351,1671368734.354,512,129888,74671
21242,90414.59441477535,1671368734.354,512,129888,74671
21243,90414.6015602156,1671368734.354,512,129839,74674
21243,90414.60870565585,1671368734.354,512,129839,74674
21244,90414.63585467737,1671368734.354,514,129894,74655
21244,90414.64283207364,1671368734.354,514,129894,74655
21245,90414.64980946992,1671368734.354,512,129866,74643
21245,90414.6567868662,1671368734.354,512,129866,74643
21246,90414.66376426247,1671368734.446,511,129921,74661
21246,90414.67074165875,1671368734.446,511,129921,74661
21247,90414.67771905502,1671368734.446,511,129872,74644
21247,90414.6846964513,1671368734.446,511,129872,74644
21248,90414.69167384757,1671368734.446,510,129845,74663
21248,90414.69865124385,1671368734.446,510,129845,74663
21249,90414.70562864012,1671368734.446,512,129888,74651
21249,90414.7126060364,1671368734.446,512,129888,74651
21250,90414.71958343267,1671368734.446,510,129843,74649
21250,90414.72656082895,1671368734.446,510,129843,74649
21251,90414.73353822522,1671368734.446,511,129885,74635
21251,90414.7405156215,1671368734.446,511,129885,74635
21252,90414.74749301777,1671368734.536,511,129832,74624
21252,90414.75447041405,1671368734.536,511,129832,74624
21253,90414.76144781032,1671368734.536,510,129893,74627
21253,90414.7684252066,1671368734.536,510,129893,74627
21254,90414.78744058037,1671368734.536,512,129879,74625
21254,90414.79451241698,1671368734.536,512,129879,74625
21255,90414.80158425358,1671368734.536,511,129956,74625
21255,90414.80865609019,1671368734.536,511,129956,74625
21256,90414.81572792679,1671368734.536,511,129842,74629
21256,90414.8227997634,1671368734.536,511,129842,74629
21257,90414.8298716,1671368734.536,511,129925,74632
21257,90414.8369434366,1671368734.536,511,129925,74632
21258,90414.84401527321,1671368734.638,511,129970,74628
21258,90414.85108710981,1671368734.638,511,129970,74628
21259,90414.85815894642,1671368734.638,511,129903,74634
21259,90414.86523078302,1671368734.638,511,129903,74634
21260,90414.87230261962,1671368734.638,511,129984,74650
21260,90414.87937445623,1671368734.638,511,129984,74650
21261,90414.88644629283,1671368734.638,511,129951,74621
21261,90414.89351812944,1671368734.638,511,129951,74621
21262,90414.90058996604,1671368734.638,511,129979,74645
21262,90414.90766180264,1671368734.638,511,129979,74645
21263,90414.91473363925,1671368734.638,512,130000,74661
21263,90414.92180547585,1671368734.638,512,130000,74661
21264,90414.95124418016,1671368734.727,511,130027,74659
21264,90414.95925758642,1671368734.727,511,130027,74659
21265,90414.96727099268,1671368734.727,510,130051,74666
21265,90414.97528439894,1671368734.727,510,130051,74666
21266,90414.9832978052,1671368734.727,511,130105,74674
21266,90414.99131121146,1671368734.727,511,130105,74674
21267,90414.99932461772,1671368734.727,510,130090,74667
21267,90415.00733802398,1671368734.727,510,130090,74667
21268,90415.01535143024,1671368734.727,511,130127,74697
21268,90415.0233648365,1671368734.727,511,130127,74697
21269,90415.03137824275,1671368734.727,511,130136,74690
21269,90415.03939164901,1671368734.727,511,130136,74690
21270,90415.04740505527,1671368734.82,512,130193,74677
21270,90415.05541846153,1671368734.82,512,130193,74677
21271,90415.06343186779,1671368734.82,510,130213,74676
21271,90415.07144527405,1671368734.82,510,130213,74676
21272,90415.07945868031,1671368734.82,511,130240,74685
21272,90415.08747208657,1671368734.82,511,130240,74685
21273,90415.09548549283,1671368734.82,510,130200,74706
21273,90415.10349889909,1671368734.82,510,130200,74706
21274,90415.10081518498,1671368734.82,511,130254,74706
21274,90415.10806836613,1671368734.82,511,130254,74706
21275,90415.11532154727,1671368734.82,510,130228,74694
21275,90415.12257472842,1671368734.82,510,130228,74694
21276,90415.12982790956,1671368734.914,511,130262,74700
21276,90415.13708109071,1671368734.914,511,130262,74700
21277,90415.14433427186,1671368734.914,512,130365,74713
21277,90415.151587453,1671368734.914,512,130365,74713
21278,90415.15884063415,1671368734.914,512,130329,74722
21278,90415.16609381529,1671368734.914,512,130329,74722
21279,90415.17334699644,1671368734.914,512,130368,74708
21279,90415.18060017758,1671368734.914,512,130368,74708
21280,90415.18785335873,1671368734.914,511,130337,74732
21280,90415.19510653988,1671368734.914,511,130337,74732
21281,90415.20235972102,1671368734.914,511,130362,74731
21281,90415.20961290217,1671368734.914,511,130362,74731
21282,90415.21686608331,1671368735.017,510,130375,74729
21282,90415.22411926446,1671368735.017,510,130375,74729
21283,90415.2313724456,1671368735.017,511,130471,74737
21283,90415.23862562675,1671368735.017,511,130471,74737
21284,90415.26080704104,1671368735.017,512,130460,74744
21284,90415.2686403495,1671368735.017,512,130460,74744
21285,90415.27647365797,1671368735.017,512,130530,74782
21285,90415.28430696644,1671368735.017,512,130530,74782
21286,90415.2921402749,1671368735.017,512,130460,74753
21286,90415.29997358337,1671368735.017,512,130460,74753
21287,90415.30780689184,1671368735.017,512,130483,74762
21287,90415.31564020031,1671368735.017,512,130483,74762
21288,90415.32347350878,1671368735.101,511,130553,74770
21288,90415.33130681724,1671368735.101,511,130553,74770
21289,90415.33914012571,1671368735.101,511,130527,74779
21289,90415.34697343418,1671368735.101,511,130527,74779
21290,90415.35480674265,1671368735.101,511,130486,74736
21290,90415.36264005111,1671368735.101,511,130486,74736
21291,90415.37047335958,1671368735.101,514,130439,74693
21291,90415.37830666805,1671368735.101,514,130439,74693
21292,90415.38613997652,1671368735.101,512,130268,74671
21292,90415.39397328498,1671368735.101,512,130268,74671
21293,90415.40180659345,1671368735.101,511,130217,74626
21293,90415.40963990192,1671368735.101,511,130217,74626
21294,90415.41202686401,1671368735.195,514,130131,74600
21294,90415.41861245675,1671368735.195,514,130131,74600
21295,90415.42519804949,1671368735.195,511,130031,74576
21295,90415.43178364223,1671368735.195,511,130031,74576
21296,90415.43836923497,1671368735.195,511,129944,74567
21296,90415.4449548277,1671368735.195,511,129944,74567
21297,90415.45154042044,1671368735.195,510,129980,74557
21297,90415.45812601318,1671368735.195,510,129980,74557
21298,90415.46471160592,1671368735.195,511,129968,74553
21298,90415.47129719866,1671368735.195,511,129968,74553
21299,90415.4778827914,1671368735.195,511,129991,74578
21299,90415.48446838414,1671368735.195,511,129991,74578
21300,90415.49105397688,1671368735.291,512,129959,74561
21300,90415.49763956961,1671368735.291,512,129959,74561
21301,90415.50422516235,1671368735.291,512,129935,74539
21301,90415.51081075509,1671368735.291,512,129935,74539
21302,90415.51739634783,1671368735.291,512,129934,74544
21302,90415.52398194057,1671368735.291,512,129934,74544
21303,90415.53056753331,1671368735.291,510,129986,74551
21303,90415.53715312605,1671368735.291,510,129986,74551
21304,90415.57143365049,1671368735.291,512,129876,74538
21304,90415.57890671927,1671368735.291,512,129876,74538
21305,90415.58637978804,1671368735.291,512,129957,74536
21305,90415.59385285682,1671368735.291,512,129957,74536
21306,90415.6013259256,1671368735.389,512,129963,74532
21306,90415.60879899438,1671368735.389,512,129963,74532
21307,90415.61627206315,1671368735.389,509,129968,74545
21307,90415.62374513193,1671368735.389,509,129968,74545
21308,90415.63121820071,1671368735.389,512,129990,74549
21308,90415.63869126949,1671368735.389,512,129990,74549
21309,90415.64616433826,1671368735.389,512,129954,74545
21309,90415.65363740704,1671368735.389,512,129954,74545
21310,90415.66111047582,1671368735.389,514,129987,74519
21310,90415.6685835446,1671368735.389,514,129987,74519
21311,90415.67605661337,1671368735.389,511,130022,74525
21311,90415.68352968215,1671368735.389,511,130022,74525
21312,90415.69100275093,1671368735.479,512,129943,74497
21312,90415.6984758197,1671368735.479,512,129943,74497
21313,90415.70594888848,1671368735.479,512,129925,74482
21313,90415.71342195726,1671368735.479,512,129925,74482
21314,90415.73110946169,1671368735.479,511,129963,74513
21314,90415.73829824693,1671368735.479,511,129963,74513
21315,90415.74548703217,1671368735.479,512,130026,74486
21315,90415.7526758174,1671368735.479,512,130026,74486
21316,90415.75986460265,1671368735.479,514,129923,74498
21316,90415.76705338788,1671368735.479,514,129923,74498
21317,90415.77424217312,1671368735.479,512,129985,74489
21317,90415.78143095836,1671368735.479,512,129985,74489
21318,90415.7886197436,1671368735.566,511,129951,74506
21318,90415.79580852884,1671368735.566,511,129951,74506
21319,90415.80299731408,1671368735.566,512,130036,74489
21319,90415.81018609932,1671368735.566,512,130036,74489
21320,90415.81737488456,1671368735.566,512,130062,74500
21320,90415.8245636698,1671368735.566,512,130062,74500
21321,90415.83175245504,1671368735.566,514,130005,74507
21321,90415.83894124028,1671368735.566,514,130005,74507
21322,90415.84613002551,1671368735.566,510,130023,74512
21322,90415.85331881075,1671368735.566,510,130023,74512
21323,90415.860507596,1671368735.566,511,130058,74516
21323,90415.86769638123,1671368735.566,511,130058,74516
21324,90415.87742121487,1671368735.664,511,130101,74496
21324,90415.88424314451,1671368735.664,511,130101,74496
21325,90415.89106507415,1671368735.664,511,130096,74515
21325,90415.89788700378,1671368735.664,511,130096,74515
21326,90415.90470893342,1671368735.664,511,130120,74520
21326,90415.91153086306,1671368735.664,511,130120,74520
21327,90415.9183527927,1671368735.664,512,130123,74498
21327,90415.92517472233,1671368735.664,512,130123,74498
21328,90415.93199665197,1671368735.664,512,130207,74520
21328,90415.9388185816,1671368735.664,512,130207,74520
21329,90415.94564051124,1671368735.664,511,130214,74525
21329,90415.95246244088,1671368735.664,511,130214,74525
21330,90415.95928437052,1671368735.762,511,130142,74541
21330,90415.96610630015,1671368735.762,511,130142,74541
21331,90415.97292822979,1671368735.762,511,130198,74530
21331,90415.97975015943,1671368735.762,511,130198,74530
21332,90415.98657208907,1671368735.762,512,130274,74548
21332,90415.9933940187,1671368735.762,512,130274,74548
21333,90416.00021594834,1671368735.762,512,130245,74551
21333,90416.00703787798,1671368735.762,512,130245,74551
21334,90416.04202390111,1671368735.762,512,130300,74539
21334,90416.04969107744,1671368735.762,512,130300,74539
21335,90416.05735825376,1671368735.762,512,130253,74537
21335,90416.06502543009,1671368735.762,512,130253,74537
21336,90416.07269260641,1671368735.857,510,130327,74541
21336,90416.08035978273,1671368735.857,510,130327,74541
21337,90416.08802695906,1671368735.857,512,130353,74560
21337,90416.09569413538,1671368735.857,512,130353,74560
21338,90416.1033613117,1671368735.857,511,130329,74554
21338,90416.11102848803,1671368735.857,511,130329,74554
21339,90416.11869566435,1671368735.857,512,130415,74555
21339,90416.12636284067,1671368735.857,512,130415,74555
21340,90416.134030017,1671368735.857,512,130347,74548
21340,90416.14169719332,1671368735.857,512,130347,74548
21341,90416.14936436964,1671368735.857,512,130403,74569
21341,90416.15703154597,1671368735.857,512,130403,74569
21342,90416.16469872229,1671368735.946,512,130379,74581
21342,90416.17236589862,1671368735.946,512,130379,74581
21343,90416.18003307494,1671368735.946,512,130437,74545
21343,90416.18770025126,1671368735.946,512,130437,74545
21344,90416.1984310185,1671368735.946,511,130437,74559
21344,90416.20554927102,1671368735.946,511,130437,74559
21345,90416.21266752353,1671368735.946,511,130536,74583
21345,90416.21978577605,1671368735.946,511,130536,74583
21346,90416.22690402856,1671368735.946,512,130521,74594
21346,90416.23402228107,1671368735.946,512,130521,74594
21347,90416.24114053359,1671368735.946,511,130562,74585
21347,90416.2482587861,1671368735.946,511,130562,74585
21348,90416.25537703861,1671368736.053,514,130551,74559
21348,90416.26249529113,1671368736.053,514,130551,74559
21349,90416.26961354364,1671368736.053,511,130611,74588
21349,90416.27673179616,1671368736.053,511,130611,74588
21350,90416.28385004867,1671368736.053,511,130598,74606
21350,90416.29096830118,1671368736.053,511,130598,74606
21351,90416.2980865537,1671368736.053,512,130654,74602
21351,90416.30520480621,1671368736.053,512,130654,74602
21352,90416.31232305872,1671368736.053,510,130627,74612
21352,90416.31944131124,1671368736.053,510,130627,74612
21353,90416.32655956375,1671368736.053,510,130653,74589
21353,90416.33367781626,1671368736.053,510,130653,74589
21354,90416.3660097592,1671368736.137,512,130601,74563
21354,90416.37430296015,1671368736.137,512,130601,74563
21355,90416.3825961611,1671368736.137,510,130513,74550
21355,90416.39088936205,1671368736.137,510,130513,74550
21356,90416.39918256301,1671368736.137,511,130327,74490
21356,90416.40747576396,1671368736.137,511,130327,74490
21357,90416.41576896491,1671368736.137,511,130273,74462
21357,90416.42406216587,1671368736.137,511,130273,74462
21358,90416.43235536682,1671368736.137,511,130106,74439
21358,90416.44064856778,1671368736.137,511,130106,74439
21359,90416.44894176873,1671368736.137,511,130178,74438
21359,90416.45723496968,1671368736.137,511,130178,74438
21360,90416.46552817064,1671368736.231,510,130066,74414
21360,90416.47382137159,1671368736.231,510,130066,74414
21361,90416.48211457254,1671368736.231,510,130119,74419
21361,90416.4904077735,1671368736.231,510,130119,74419
21362,90416.49870097445,1671368736.231,511,130003,74391
21362,90416.5069941754,1671368736.231,511,130003,74391
21363,90416.51528737636,1671368736.231,512,130073,74404
21363,90416.52358057731,1671368736.231,512,130073,74404
21364,90416.51143545343,1671368736.231,512,130011,74391
21364,90416.51867912192,1671368736.231,512,130011,74391
21365,90416.5259227904,1671368736.231,511,130026,74387
21365,90416.53316645889,1671368736.231,511,130026,74387
21366,90416.54041012737,1671368736.32,510,130034,74380
21366,90416.54765379586,1671368736.32,510,130034,74380
21367,90416.55489746435,1671368736.32,510,129908,74393
21367,90416.56214113283,1671368736.32,510,129908,74393
21368,90416.56938480132,1671368736.32,510,130034,74398
21368,90416.5766284698,1671368736.32,510,130034,74398
21369,90416.58387213829,1671368736.32,510,130077,74388
21369,90416.59111580678,1671368736.32,510,130077,74388
21370,90416.59835947526,1671368736.32,510,130025,74386
21370,90416.60560314375,1671368736.32,510,130025,74386
21371,90416.61284681223,1671368736.32,510,130062,74395
21371,90416.62009048072,1671368736.32,510,130062,74395
21372,90416.6273341492,1671368736.409,511,130014,74391
21372,90416.63457781769,1671368736.409,511,130014,74391
21373,90416.64182148618,1671368736.409,512,129962,74368
21373,90416.64906515466,1671368736.409,512,129962,74368
21374,90416.66152713116,1671368736.409,511,129990,74374
21374,90416.66847178643,1671368736.409,511,129990,74374
21375,90416.67541644169,1671368736.409,510,129962,74354
21375,90416.68236109696,1671368736.409,510,129962,74354
21376,90416.68930575222,1671368736.409,511,130004,74362
21376,90416.69625040749,1671368736.409,511,130004,74362
21377,90416.70319506276,1671368736.409,510,129915,74346
21377,90416.71013971802,1671368736.409,510,129915,74346
21378,90416.71708437329,1671368736.515,510,130000,74340
21378,90416.72402902856,1671368736.515,510,130000,74340
21379,90416.73097368382,1671368736.515,509,129955,74344
21379,90416.73791833909,1671368736.515,509,129955,74344
21380,90416.74486299435,1671368736.515,511,129940,74350
21380,90416.75180764962,1671368736.515,511,129940,74350
21381,90416.75875230489,1671368736.515,514,130081,74362
21381,90416.76569696015,1671368736.515,514,130081,74362
21382,90416.77264161542,1671368736.515,511,130015,74338
21382,90416.77958627068,1671368736.515,511,130015,74338
21383,90416.78653092595,1671368736.515,511,130006,74352
21383,90416.79347558122,1671368736.515,511,130006,74352
21384,90416.8277421971,1671368736.605,511,129966,74361
21384,90416.83597711963,1671368736.605,511,129966,74361
21385,90416.84421204215,1671368736.605,511,130023,74349
21385,90416.85244696468,1671368736.605,511,130023,74349
21386,90416.8606818872,1671368736.605,510,130004,74357
21386,90416.86891680973,1671368736.605,510,130004,74357
21387,90416.87715173226,1671368736.605,511,130079,74357
21387,90416.88538665479,1671368736.605,511,130079,74357
21388,90416.89362157731,1671368736.605,510,130066,74374
21388,90416.90185649984,1671368736.605,510,130066,74374
21389,90416.91009142237,1671368736.605,512,130057,74365
21389,90416.9183263449,1671368736.605,512,130057,74365
21390,90416.92656126742,1671368736.704,511,130059,74374
21390,90416.93479618995,1671368736.704,511,130059,74374
21391,90416.94303111247,1671368736.704,511,130091,74344
21391,90416.951266035,1671368736.704,511,130091,74344
21392,90416.95950095753,1671368736.704,511,130081,74366
21392,90416.96773588005,1671368736.704,511,130081,74366
21393,90416.97597080258,1671368736.704,511,130165,74372
21393,90416.98420572511,1671368736.704,511,130165,74372
21394,90416.98382522515,1671368736.704,509,130120,74381
21394,90416.99157453724,1671368736.704,509,130120,74381
21395,90416.99932384933,1671368736.704,511,130197,74390
21395,90417.00707316143,1671368736.704,511,130197,74390
21396,90417.01482247352,1671368736.793,511,130178,74372
21396,90417.02257178561,1671368736.793,511,130178,74372
21397,90417.0303210977,1671368736.793,512,130205,74384
21397,90417.03807040979,1671368736.793,512,130205,74384
21398,90417.04581972188,1671368736.793,511,130179,74371
21398,90417.05356903397,1671368736.793,511,130179,74371
21399,90417.06131834607,1671368736.793,512,130157,74375
21399,90417.06906765816,1671368736.793,512,130157,74375
21400,90417.07681697025,1671368736.793,510,130147,74397
21400,90417.08456628234,1671368736.793,510,130147,74397
21401,90417.09231559443,1671368736.793,511,130197,74391
21401,90417.10006490652,1671368736.793,511,130197,74391
21402,90417.10781421862,1671368736.889,510,130217,74371
21402,90417.11556353071,1671368736.889,510,130217,74371
21403,90417.1233128428,1671368736.889,511,130239,74380
21403,90417.13106215489,1671368736.889,511,130239,74380
21404,90417.1370982689,1671368736.889,512,130262,74383
21404,90417.14440122701,1671368736.889,512,130262,74383
21405,90417.15170418512,1671368736.889,511,130278,74400
21405,90417.15900714323,1671368736.889,511,130278,74400
21406,90417.16631010134,1671368736.889,510,130265,74411
21406,90417.17361305945,1671368736.889,510,130265,74411
21407,90417.18091601756,1671368736.889,511,130269,74407
21407,90417.18821897567,1671368736.889,511,130269,74407
21408,90417.19552193378,1671368736.986,510,130312,74385
21408,90417.2028248919,1671368736.986,510,130312,74385
21409,90417.21012785,1671368736.986,509,130316,74402
21409,90417.21743080812,1671368736.986,509,130316,74402
21410,90417.22473376623,1671368736.986,510,130349,74423
21410,90417.23203672434,1671368736.986,510,130349,74423
21411,90417.23933968245,1671368736.986,510,130310,74422
21411,90417.24664264056,1671368736.986,510,130310,74422
21412,90417.25394559867,1671368736.986,511,130442,74451
21412,90417.26124855678,1671368736.986,511,130442,74451
21413,90417.26855151489,1671368736.986,512,130416,74429
21413,90417.275854473,1671368736.986,512,130416,74429
21414,90417.2980798257,1671368737.072,512,130376,74422
21414,90417.30565218639,1671368737.072,512,130376,74422
21415,90417.31322454708,1671368737.072,510,130369,74397
21415,90417.32079690776,1671368737.072,510,130369,74397
21416,90417.32836926845,1671368737.072,511,130218,74373
21416,90417.33594162914,1671368737.072,511,130218,74373
21417,90417.34351398982,1671368737.072,512,130147,74320
21417,90417.3510863505,1671368737.072,512,130147,74320
21418,90417.3586587112,1671368737.072,511,129984,74290
