id,lsl_ts,unix_ts,ambient,ir,red
11640,90074.07492285,1671368393.785,545,139879,92942
11640,90074.07492285,1671368393.785,545,139879,92942
11641,90074.0776195,1671368393.785,525,171507,98825
11641,90074.0776195,1671368393.785,525,171507,98825
11642,90074.08031615001,1671368393.785,521,171511,98813
11642,90074.08031615001,1671368393.785,521,171511,98813
11643,90074.0830128,1671368393.785,520,171477,98798
11643,90074.0830128,1671368393.785,520,171477,98798
11644,90074.08570945,1671368393.785,520,171474,98789
11644,90074.08570945,1671368393.785,520,171474,98789
11645,90074.0884061,1671368393.785,520,171428,98782
11645,90074.0884061,1671368393.785,520,171428,98782
11646,90074.09891666667,1671368393.848,520,171453,98775
11646,90074.09891666667,1671368393.848,520,171453,98775
11647,90074.10942723333,1671368393.848,521,171482,98771
11647,90074.10942723333,1671368393.848,521,171482,98771
11648,90074.11993779999,1671368393.848,522,171358,98753
11648,90074.11993779999,1671368393.848,522,171358,98753
11649,90074.13044836666,1671368393.848,522,171526,98775
11649,90074.13044836666,1671368393.848,522,171526,98775
11650,90074.14095893333,1671368393.848,521,171506,98758
11650,90074.14095893333,1671368393.848,521,171506,98758
11651,90074.1514695,1671368393.848,521,171462,98785
11651,90074.1514695,1671368393.848,521,171462,98785
11652,90074.15976763333,1671368393.898,519,171473,98770
11652,90074.15976763333,1671368393.898,519,171473,98770
11653,90074.16806576666,1671368393.898,520,171271,98734
11653,90074.16806576666,1671368393.898,520,171271,98734
11654,90074.1763639,1671368393.898,519,171219,98712
11654,90074.1763639,1671368393.898,519,171219,98712
11655,90074.18466203334,1671368393.898,519,171135,98675
11655,90074.18466203334,1671368393.898,519,171135,98675
11656,90074.19296016666,1671368393.898,521,171049,98663
11656,90074.19296016666,1671368393.898,521,171049,98663
11657,90074.2012583,1671368393.898,520,171053,98650
11657,90074.2012583,1671368393.898,520,171053,98650
11658,90074.21661211667,1671368393.99,520,170966,98604
11658,90074.21661211667,1671368393.99,520,170966,98604
11659,90074.23196593333,1671368393.99,518,170910,98610
11659,90074.23196593333,1671368393.99,518,170910,98610
11660,90074.24731975,1671368393.99,520,170863,98574
11660,90074.24731975,1671368393.99,520,170863,98574
11661,90074.26267356667,1671368393.99,520,170793,98583
11661,90074.26267356667,1671368393.99,520,170793,98583
11662,90074.27802738333,1671368393.99,520,170760,98554
11662,90074.27802738333,1671368393.99,520,170760,98554
11663,90074.2933812,1671368393.99,519,170759,98506
11663,90074.2933812,1671368393.99,519,170759,98506
11664,90074.30777326666,1671368394.077,521,170745,98471
11664,90074.30777326666,1671368394.077,521,170745,98471
11665,90074.32216533333,1671368394.077,520,170656,98447
11665,90074.32216533333,1671368394.077,520,170656,98447
11666,90074.3365574,1671368394.077,521,170629,98437
11666,90074.3365574,1671368394.077,521,170629,98437
11667,90074.35094946667,1671368394.077,519,170622,98435
11667,90074.35094946667,1671368394.077,519,170622,98435
11668,90074.36534153332,1671368394.077,520,170650,98406
11668,90074.36534153332,1671368394.077,520,170650,98406
11669,90074.3797336,1671368394.077,520,170495,98407
11669,90074.3797336,1671368394.077,520,170495,98407
11670,90074.39547405,1671368394.171,520,170519,98408
11670,90074.39547405,1671368394.171,520,170519,98408
11671,90074.4112145,1671368394.171,520,170472,98408
11671,90074.4112145,1671368394.171,520,170472,98408
11672,90074.42695495,1671368394.171,521,170426,98403
11672,90074.42695495,1671368394.171,521,170426,98403
11673,90074.44269540001,1671368394.171,521,170421,98412
11673,90074.44269540001,1671368394.171,521,170421,98412
11674,90074.45843585,1671368394.171,521,170430,98419
11674,90074.45843585,1671368394.171,521,170430,98419
11675,90074.4741763,1671368394.171,520,170329,98376
11675,90074.4741763,1671368394.171,520,170329,98376
11676,90074.49096663334,1671368394.272,519,170357,98388
11676,90074.49096663334,1671368394.272,519,170357,98388
11677,90074.50775696668,1671368394.272,520,170304,98389
11677,90074.50775696668,1671368394.272,520,170304,98389
11678,90074.52454730001,1671368394.272,519,170331,98371
11678,90074.52454730001,1671368394.272,519,170331,98371
11679,90074.54133763333,1671368394.272,521,170289,98383
11679,90074.54133763333,1671368394.272,521,170289,98383
11680,90074.55812796667,1671368394.272,520,170404,98421
11680,90074.55812796667,1671368394.272,520,170404,98421
11681,90074.5749183,1671368394.272,521,170337,98404
11681,90074.5749183,1671368394.272,521,170337,98404
11682,90074.58975161667,1671368394.361,521,170287,98397
11682,90074.58975161667,1671368394.361,521,170287,98397
11683,90074.60458493333,1671368394.361,520,170239,98392
11683,90074.60458493333,1671368394.361,520,170239,98392
11684,90074.61941825,1671368394.361,520,170283,98348
11684,90074.61941825,1671368394.361,520,170283,98348
11685,90074.63425156668,1671368394.361,520,170297,98311
11685,90074.63425156668,1671368394.361,520,170297,98311
11686,90074.64908488333,1671368394.361,520,170224,98248
11686,90074.64908488333,1671368394.361,520,170224,98248
11687,90074.6639182,1671368394.361,521,170139,98250
11687,90074.6639182,1671368394.361,521,170139,98250
11688,90074.6802307,1671368394.459,520,170254,98252
11688,90074.6802307,1671368394.459,520,170254,98252
11689,90074.6965432,1671368394.459,521,170183,98231
11689,90074.6965432,1671368394.459,521,170183,98231
11690,90074.7128557,1671368394.459,522,170221,98224
11690,90074.7128557,1671368394.459,522,170221,98224
11691,90074.7291682,1671368394.459,521,170265,98180
11691,90074.7291682,1671368394.459,521,170265,98180
11692,90074.7454807,1671368394.459,519,170138,98054
11692,90074.7454807,1671368394.459,519,170138,98054
11693,90074.7617932,1671368394.459,521,170107,97962
11693,90074.7617932,1671368394.459,521,170107,97962
11694,90074.77664531667,1671368394.548,520,170064,97907
11694,90074.77664531667,1671368394.548,520,170064,97907
11695,90074.79149743334,1671368394.548,520,170025,97933
11695,90074.79149743334,1671368394.548,520,170025,97933
11696,90074.80634955,1671368394.548,521,169999,97992
11696,90074.80634955,1671368394.548,521,169999,97992
11697,90074.82120166667,1671368394.548,521,170124,98044
11697,90074.82120166667,1671368394.548,521,170124,98044
11698,90074.83605378334,1671368394.548,522,170072,98115
11698,90074.83605378334,1671368394.548,522,170072,98115
11699,90074.8509059,1671368394.548,522,170036,98161
11699,90074.8509059,1671368394.548,522,170036,98161
11700,90074.86792565,1671368394.65,520,170159,98215
11700,90074.86792565,1671368394.65,520,170159,98215
11701,90074.8849454,1671368394.65,521,170175,98256
11701,90074.8849454,1671368394.65,521,170175,98256
11702,90074.90196515,1671368394.65,520,170118,98283
11702,90074.90196515,1671368394.65,520,170118,98283
11703,90074.91898490001,1671368394.65,520,170136,98333
11703,90074.91898490001,1671368394.65,520,170136,98333
11704,90074.93600465001,1671368394.65,521,170236,98336
11704,90074.93600465001,1671368394.65,521,170236,98336
11705,90074.9530244,1671368394.65,521,170227,98346
11705,90074.9530244,1671368394.65,521,170227,98346
11706,90074.96800415,1671368394.74,520,170278,98376
11706,90074.96800415,1671368394.74,520,170278,98376
11707,90074.9829839,1671368394.74,521,170224,98382
11707,90074.9829839,1671368394.74,521,170224,98382
11708,90074.99796365,1671368394.74,519,170297,98389
11708,90074.99796365,1671368394.74,519,170297,98389
11709,90075.0129434,1671368394.74,519,170322,98413
11709,90075.0129434,1671368394.74,519,170322,98413
11710,90075.02792314999,1671368394.74,521,170344,98410
11710,90075.02792314999,1671368394.74,521,170344,98410
11711,90075.0429029,1671368394.74,519,170244,98409
11711,90075.0429029,1671368394.74,519,170244,98409
11712,90075.05666568333,1671368394.822,521,170217,98383
11712,90075.05666568333,1671368394.822,521,170217,98383
11713,90075.07042846666,1671368394.822,520,170176,98353
11713,90075.07042846666,1671368394.822,520,170176,98353
11714,90075.08419125,1671368394.822,521,170122,98316
11714,90075.08419125,1671368394.822,521,170122,98316
11715,90075.09795403334,1671368394.822,521,170060,98301
11715,90075.09795403334,1671368394.822,521,170060,98301
11716,90075.11171681667,1671368394.822,520,169940,98246
11716,90075.11171681667,1671368394.822,520,169940,98246
11717,90075.1254796,1671368394.822,519,169831,98219
11717,90075.1254796,1671368394.822,519,169831,98219
11718,90075.14219081667,1671368394.923,520,169829,98182
11718,90075.14219081667,1671368394.923,520,169829,98182
11719,90075.15890203333,1671368394.923,522,169715,98162
11719,90075.15890203333,1671368394.923,522,169715,98162
11720,90075.17561325,1671368394.923,521,169682,98150
11720,90075.17561325,1671368394.923,521,169682,98150
11721,90075.19232446667,1671368394.923,521,169681,98127
11721,90075.19232446667,1671368394.923,521,169681,98127
11722,90075.20903568334,1671368394.923,521,169671,98153
11722,90075.20903568334,1671368394.923,521,169671,98153
11723,90075.2257469,1671368394.923,520,169632,98134
11723,90075.2257469,1671368394.923,520,169632,98134
11724,90075.24265236667,1671368395.024,521,169678,98123
11724,90075.24265236667,1671368395.024,521,169678,98123
11725,90075.25955783334,1671368395.024,520,169533,98132
11725,90075.25955783334,1671368395.024,520,169533,98132
11726,90075.2764633,1671368395.024,520,169585,98083
11726,90075.2764633,1671368395.024,520,169585,98083
11727,90075.29336876667,1671368395.024,521,169501,98087
11727,90075.29336876667,1671368395.024,521,169501,98087
11728,90075.31027423334,1671368395.024,521,169537,98086
11728,90075.31027423334,1671368395.024,521,169537,98086
11729,90075.3271797,1671368395.024,522,169530,98077
11729,90075.3271797,1671368395.024,522,169530,98077
11730,90075.34170681667,1671368395.111,522,169516,98072
11730,90075.34170681667,1671368395.111,522,169516,98072
11731,90075.35623393334,1671368395.111,521,169482,98079
11731,90075.35623393334,1671368395.111,521,169482,98079
11732,90075.37076105,1671368395.111,521,169379,98063
11732,90075.37076105,1671368395.111,521,169379,98063
11733,90075.38528816667,1671368395.111,520,169438,98058
11733,90075.38528816667,1671368395.111,520,169438,98058
11734,90075.39981528334,1671368395.111,520,169391,98056
11734,90075.39981528334,1671368395.111,520,169391,98056
11735,90075.4143424,1671368395.111,521,169387,98067
11735,90075.4143424,1671368395.111,521,169387,98067
11736,90075.42834750001,1671368395.195,522,169368,98052
11736,90075.42834750001,1671368395.195,522,169368,98052
11737,90075.4423526,1671368395.195,521,169361,98050
11737,90075.4423526,1671368395.195,521,169361,98050
11738,90075.4563577,1671368395.195,522,169384,98062
11738,90075.4563577,1671368395.195,522,169384,98062
11739,90075.4703628,1671368395.195,522,169412,98041
11739,90075.4703628,1671368395.195,522,169412,98041
11740,90075.4843679,1671368395.195,520,169363,98028
11740,90075.4843679,1671368395.195,520,169363,98028
11741,90075.498373,1671368395.195,520,169346,98028
11741,90075.498373,1671368395.195,520,169346,98028
11742,90075.51659281667,1671368395.305,520,169417,98029
11742,90075.51659281667,1671368395.305,520,169417,98029
11743,90075.53481263333,1671368395.305,521,169349,98051
11743,90075.53481263333,1671368395.305,521,169349,98051
11744,90075.55303245,1671368395.305,522,169363,98028
11744,90075.55303245,1671368395.305,522,169363,98028
11745,90075.57125226667,1671368395.305,521,169435,98040
11745,90075.57125226667,1671368395.305,521,169435,98040
11746,90075.58947208333,1671368395.305,523,169400,98011
11746,90075.58947208333,1671368395.305,523,169400,98011
11747,90075.6076919,1671368395.305,520,169371,97997
11747,90075.6076919,1671368395.305,520,169371,97997
11748,90075.62347046667,1671368395.399,520,169469,98015
11748,90075.62347046667,1671368395.399,520,169469,98015
11749,90075.63924903334,1671368395.399,519,169364,98009
11749,90075.63924903334,1671368395.399,519,169364,98009
11750,90075.6550276,1671368395.399,520,169422,98025
11750,90075.6550276,1671368395.399,520,169422,98025
11751,90075.67080616667,1671368395.399,521,169402,98016
11751,90075.67080616667,1671368395.399,521,169402,98016
11752,90075.68658473334,1671368395.399,521,169405,98035
11752,90075.68658473334,1671368395.399,521,169405,98035
11753,90075.7023633,1671368395.399,522,169418,98017
11753,90075.7023633,1671368395.399,522,169418,98017
11754,90075.71725891667,1671368395.489,523,169380,98027
11754,90075.71725891667,1671368395.489,523,169380,98027
11755,90075.73215453334,1671368395.489,521,169528,98055
11755,90075.73215453334,1671368395.489,521,169528,98055
11756,90075.74705015,1671368395.489,521,169433,98021
11756,90075.74705015,1671368395.489,521,169433,98021
11757,90075.76194576667,1671368395.489,519,169496,98053
11757,90075.76194576667,1671368395.489,519,169496,98053
11758,90075.77684138334,1671368395.489,521,169550,98054
11758,90075.77684138334,1671368395.489,521,169550,98054
11759,90075.791737,1671368395.489,521,169488,98045
11759,90075.791737,1671368395.489,521,169488,98045
11760,90075.80554741668,1671368395.572,522,169484,98042
11760,90075.80554741668,1671368395.572,522,169484,98042
11761,90075.81935783334,1671368395.572,520,169502,98080
11761,90075.81935783334,1671368395.572,520,169502,98080
11762,90075.83316825001,1671368395.572,520,169535,98078
11762,90075.83316825001,1671368395.572,520,169535,98078
11763,90075.84697866667,1671368395.572,520,169551,98096
11763,90075.84697866667,1671368395.572,520,169551,98096
11764,90075.86078908334,1671368395.572,520,169569,98079
11764,90075.86078908334,1671368395.572,520,169569,98079
11765,90075.8745995,1671368395.572,521,169555,98109
11765,90075.8745995,1671368395.572,521,169555,98109
11766,90075.89108088333,1671368395.67,520,169609,98075
11766,90075.89108088333,1671368395.67,520,169609,98075
11767,90075.90756226667,1671368395.67,523,169591,98104
11767,90075.90756226667,1671368395.67,523,169591,98104
11768,90075.92404365001,1671368395.67,521,169628,98112
11768,90075.92404365001,1671368395.67,521,169628,98112
11769,90075.94052503334,1671368395.67,523,169621,98136
11769,90075.94052503334,1671368395.67,523,169621,98136
11770,90075.95700641666,1671368395.67,521,169545,98124
11770,90075.95700641666,1671368395.67,521,169545,98124
11771,90075.9734878,1671368395.67,521,169660,98129
11771,90075.9734878,1671368395.67,521,169660,98129
11772,90075.99003255,1671368395.77,520,169676,98089
11772,90075.99003255,1671368395.77,520,169676,98089
11773,90076.0065773,1671368395.77,520,169561,98109
11773,90076.0065773,1671368395.77,520,169561,98109
11774,90076.02312205,1671368395.77,521,169491,98091
11774,90076.02312205,1671368395.77,521,169491,98091
11775,90076.0396668,1671368395.77,523,169416,98065
11775,90076.0396668,1671368395.77,523,169416,98065
11776,90076.05621154999,1671368395.77,523,169385,98067
11776,90076.05621154999,1671368395.77,523,169385,98067
11777,90076.0727563,1671368395.77,522,169390,98062
11777,90076.0727563,1671368395.77,522,169390,98062
11778,90076.08819461666,1671368395.862,521,169316,98076
11778,90076.08819461666,1671368395.862,521,169316,98076
11779,90076.10363293333,1671368395.862,522,169328,98040
11779,90076.10363293333,1671368395.862,522,169328,98040
11780,90076.11907125,1671368395.862,521,169314,98053
11780,90076.11907125,1671368395.862,521,169314,98053
11781,90076.13450956666,1671368395.862,520,169286,98056
11781,90076.13450956666,1671368395.862,520,169286,98056
11782,90076.14994788333,1671368395.862,520,169180,98058
11782,90076.14994788333,1671368395.862,520,169180,98058
11783,90076.1653862,1671368395.862,521,169272,98061
11783,90076.1653862,1671368395.862,521,169272,98061
11784,90076.18066038332,1671368395.954,521,169233,98057
11784,90076.18066038332,1671368395.954,521,169233,98057
11785,90076.19593456667,1671368395.954,522,169248,98028
11785,90076.19593456667,1671368395.954,522,169248,98028
11786,90076.21120875,1671368395.954,521,169200,98042
11786,90076.21120875,1671368395.954,521,169200,98042
11787,90076.22648293333,1671368395.954,520,169203,98040
11787,90076.22648293333,1671368395.954,520,169203,98040
11788,90076.24175711667,1671368395.954,520,169127,98042
11788,90076.24175711667,1671368395.954,520,169127,98042
11789,90076.2570313,1671368395.954,520,169235,98052
11789,90076.2570313,1671368395.954,520,169235,98052
11790,90076.27120898334,1671368396.039,521,169080,98052
11790,90076.27120898334,1671368396.039,521,169080,98052
11791,90076.28538666667,1671368396.039,522,169174,98054
11791,90076.28538666667,1671368396.039,522,169174,98054
11792,90076.29956435,1671368396.039,522,169183,98034
11792,90076.29956435,1671368396.039,522,169183,98034
11793,90076.31374203334,1671368396.039,522,169135,98059
11793,90076.31374203334,1671368396.039,522,169135,98059
11794,90076.32791971667,1671368396.039,522,169080,98054
11794,90076.32791971667,1671368396.039,522,169080,98054
11795,90076.3420974,1671368396.039,520,169125,98049
11795,90076.3420974,1671368396.039,520,169125,98049
11796,90076.36050395001,1671368396.149,521,169080,98106
11796,90076.36050395001,1671368396.149,521,169080,98106
11797,90076.3789105,1671368396.149,521,169146,98067
11797,90076.3789105,1671368396.149,521,169146,98067
11798,90076.39731705,1671368396.149,521,169109,98090
11798,90076.39731705,1671368396.149,521,169109,98090
11799,90076.4157236,1671368396.149,522,169111,98110
11799,90076.4157236,1671368396.149,522,169111,98110
11800,90076.43413015001,1671368396.149,522,169196,98124
11800,90076.43413015001,1671368396.149,522,169196,98124
11801,90076.4525367,1671368396.149,522,169170,98115
11801,90076.4525367,1671368396.149,522,169170,98115
11802,90076.46700345,1671368396.236,521,169145,98119
11802,90076.46700345,1671368396.236,521,169145,98119
11803,90076.4814702,1671368396.236,520,169127,98143
11803,90076.4814702,1671368396.236,520,169127,98143
11804,90076.49593695,1671368396.236,521,169126,98157
11804,90076.49593695,1671368396.236,521,169126,98157
11805,90076.5104037,1671368396.236,520,169204,98166
11805,90076.5104037,1671368396.236,520,169204,98166
11806,90076.52487045,1671368396.236,522,169214,98153
11806,90076.52487045,1671368396.236,522,169214,98153
11807,90076.5393372,1671368396.236,521,169265,98202
11807,90076.5393372,1671368396.236,521,169265,98202
11808,90076.55489875,1671368396.33,523,169209,98199
11808,90076.55489875,1671368396.33,523,169209,98199
11809,90076.57046029999,1671368396.33,523,169263,98201
11809,90076.57046029999,1671368396.33,523,169263,98201
11810,90076.58602185,1671368396.33,522,169314,98193
11810,90076.58602185,1671368396.33,522,169314,98193
11811,90076.6015834,1671368396.33,521,169243,98204
11811,90076.6015834,1671368396.33,521,169243,98204
11812,90076.61714495,1671368396.33,523,169287,98227
11812,90076.61714495,1671368396.33,523,169287,98227
11813,90076.6327065,1671368396.33,521,169276,98208
11813,90076.6327065,1671368396.33,521,169276,98208
11814,90076.64785153333,1671368396.42,522,169363,98239
11814,90076.64785153333,1671368396.42,522,169363,98239
11815,90076.66299656667,1671368396.42,523,169335,98246
11815,90076.66299656667,1671368396.42,523,169335,98246
11816,90076.67814159999,1671368396.42,522,169340,98243
11816,90076.67814159999,1671368396.42,522,169340,98243
11817,90076.69328663332,1671368396.42,522,169379,98244
11817,90076.69328663332,1671368396.42,522,169379,98244
11818,90076.70843166666,1671368396.42,522,169386,98265
11818,90076.70843166666,1671368396.42,522,169386,98265
11819,90076.7235767,1671368396.42,522,169351,98277
11819,90076.7235767,1671368396.42,522,169351,98277
11820,90076.73996303332,1671368396.519,521,169353,98293
11820,90076.73996303332,1671368396.519,521,169353,98293
11821,90076.75634936667,1671368396.519,521,169446,98324
11821,90076.75634936667,1671368396.519,521,169446,98324
11822,90076.7727357,1671368396.519,523,169374,98313
11822,90076.7727357,1671368396.519,523,169374,98313
11823,90076.78912203333,1671368396.519,522,169438,98329
11823,90076.78912203333,1671368396.519,522,169438,98329
11824,90076.80550836667,1671368396.519,522,169425,98326
11824,90076.80550836667,1671368396.519,522,169425,98326
11825,90076.8218947,1671368396.519,521,169519,98356
11825,90076.8218947,1671368396.519,521,169519,98356
11826,90076.83722936666,1671368396.611,521,169533,98357
11826,90076.83722936666,1671368396.611,521,169533,98357
11827,90076.85256403334,1671368396.611,521,169413,98362
11827,90076.85256403334,1671368396.611,521,169413,98362
11828,90076.8678987,1671368396.611,522,169417,98377
11828,90076.8678987,1671368396.611,522,169417,98377
11829,90076.88323336667,1671368396.611,520,169373,98349
11829,90076.88323336667,1671368396.611,520,169373,98349
11830,90076.89856803334,1671368396.611,521,169305,98344
11830,90076.89856803334,1671368396.611,521,169305,98344
11831,90076.9139027,1671368396.611,522,169221,98306
11831,90076.9139027,1671368396.611,522,169221,98306
11832,90076.92858765,1671368396.699,521,169134,98305
11832,90076.92858765,1671368396.699,521,169134,98305
11833,90076.94327260001,1671368396.699,522,169177,98282
11833,90076.94327260001,1671368396.699,522,169177,98282
11834,90076.95795755001,1671368396.699,522,169099,98271
11834,90076.95795755001,1671368396.699,522,169099,98271
11835,90076.9726425,1671368396.699,520,169077,98286
11835,90076.9726425,1671368396.699,520,169077,98286
11836,90076.98732745,1671368396.699,521,169043,98264
11836,90076.98732745,1671368396.699,521,169043,98264
11837,90077.0020124,1671368396.699,520,168996,98271
11837,90077.0020124,1671368396.699,520,168996,98271
11838,90077.02050678333,1671368396.81,523,169035,98278
11838,90077.02050678333,1671368396.81,523,169035,98278
11839,90077.03900116666,1671368396.81,521,169054,98288
11839,90077.03900116666,1671368396.81,521,169054,98288
11840,90077.05749554999,1671368396.81,522,169009,98277
11840,90077.05749554999,1671368396.81,522,169009,98277
11841,90077.07598993334,1671368396.81,522,169024,98294
11841,90077.07598993334,1671368396.81,522,169024,98294
11842,90077.09448431667,1671368396.81,521,168944,98273
11842,90077.09448431667,1671368396.81,521,168944,98273
11843,90077.1129787,1671368396.81,521,168968,98257
11843,90077.1129787,1671368396.81,521,168968,98257
11844,90077.12876546667,1671368396.905,521,168938,98259
11844,90077.12876546667,1671368396.905,521,168938,98259
11845,90077.14455223332,1671368396.905,520,168914,98246
11845,90077.14455223332,1671368396.905,520,168914,98246
11846,90077.160339,1671368396.905,521,168885,98182
11846,90077.160339,1671368396.905,521,168885,98182
11847,90077.17612576667,1671368396.905,520,168761,98004
11847,90077.17612576667,1671368396.905,520,168761,98004
11848,90077.19191253332,1671368396.905,521,168610,97699
11848,90077.19191253332,1671368396.905,521,168610,97699
11849,90077.2076993,1671368396.905,521,168447,97468
11849,90077.2076993,1671368396.905,521,168447,97468
11850,90077.22114544999,1671368396.985,521,168396,97433
11850,90077.22114544999,1671368396.985,521,168396,97433
11851,90077.23459159999,1671368396.985,521,168397,97600
11851,90077.23459159999,1671368396.985,521,168397,97600
11852,90077.24803774999,1671368396.985,519,168358,97824
11852,90077.24803774999,1671368396.985,519,168358,97824
11853,90077.2614839,1671368396.985,519,168442,98036
11853,90077.2614839,1671368396.985,519,168442,98036
11854,90077.27493005,1671368396.985,520,168519,98250
11854,90077.27493005,1671368396.985,520,168519,98250
11855,90077.2883762,1671368396.985,520,168594,98350
11855,90077.2883762,1671368396.985,520,168594,98350
11856,90077.30319315,1671368397.074,521,168671,98473
11856,90077.30319315,1671368397.074,521,168671,98473
11857,90077.3180101,1671368397.074,521,168753,98601
11857,90077.3180101,1671368397.074,521,168753,98601
11858,90077.33282705,1671368397.074,520,168705,98721
11858,90077.33282705,1671368397.074,520,168705,98721
11859,90077.347644,1671368397.074,521,168782,98736
11859,90077.347644,1671368397.074,521,168782,98736
11860,90077.36246095,1671368397.074,518,168755,98820
11860,90077.36246095,1671368397.074,518,168755,98820
11861,90077.3772779,1671368397.074,518,168777,98859
11861,90077.3772779,1671368397.074,518,168777,98859
11862,90077.393447,1671368397.171,521,168861,98903
11862,90077.393447,1671368397.171,521,168861,98903
11863,90077.4096161,1671368397.171,518,168841,98923
11863,90077.4096161,1671368397.171,518,168841,98923
11864,90077.4257852,1671368397.171,520,168859,98984
11864,90077.4257852,1671368397.171,520,168859,98984
11865,90077.4419543,1671368397.171,519,168858,99018
11865,90077.4419543,1671368397.171,519,168858,99018
11866,90077.4581234,1671368397.171,519,168879,99035
11866,90077.4581234,1671368397.171,519,168879,99035
11867,90077.4742925,1671368397.171,517,168905,99089
11867,90077.4742925,1671368397.171,517,168905,99089
11868,90077.49017395,1671368397.267,519,168976,99099
11868,90077.49017395,1671368397.267,519,168976,99099
11869,90077.50605540001,1671368397.267,517,168900,99084
11869,90077.50605540001,1671368397.267,517,168900,99084
11870,90077.52193685001,1671368397.267,518,168936,99077
11870,90077.52193685001,1671368397.267,518,168936,99077
11871,90077.5378183,1671368397.267,518,168966,99087
11871,90077.5378183,1671368397.267,518,168966,99087
11872,90077.55369975,1671368397.267,518,168887,99111
11872,90077.55369975,1671368397.267,518,168887,99111
11873,90077.5695812,1671368397.267,518,168964,99118
11873,90077.5695812,1671368397.267,518,168964,99118
11874,90077.5849694,1671368397.359,519,168942,99100
11874,90077.5849694,1671368397.359,519,168942,99100
11875,90077.60035760001,1671368397.359,518,168995,99147
11875,90077.60035760001,1671368397.359,518,168995,99147
11876,90077.6157458,1671368397.359,518,168935,99158
11876,90077.6157458,1671368397.359,518,168935,99158
11877,90077.631134,1671368397.359,518,169001,99172
11877,90077.631134,1671368397.359,518,169001,99172
11878,90077.6465222,1671368397.359,519,168984,99159
11878,90077.6465222,1671368397.359,519,168984,99159
11879,90077.6619104,1671368397.359,518,169019,99208
11879,90077.6619104,1671368397.359,518,169019,99208
11880,90077.67716828334,1671368397.45,520,169071,99257
11880,90077.67716828334,1671368397.45,520,169071,99257
11881,90077.69242616667,1671368397.45,520,169146,99301
11881,90077.69242616667,1671368397.45,520,169146,99301
11882,90077.70768405,1671368397.45,518,169129,99387
11882,90077.70768405,1671368397.45,518,169129,99387
11883,90077.72294193333,1671368397.45,518,169183,99447
11883,90077.72294193333,1671368397.45,518,169183,99447
11884,90077.73819981667,1671368397.45,518,169256,99518
11884,90077.73819981667,1671368397.45,518,169256,99518
11885,90077.7534577,1671368397.45,517,169269,99553
11885,90077.7534577,1671368397.45,517,169269,99553
11886,90077.76902193333,1671368397.544,520,169238,99605
11886,90077.76902193333,1671368397.544,520,169238,99605
11887,90077.78458616667,1671368397.544,519,169331,99633
11887,90077.78458616667,1671368397.544,519,169331,99633
11888,90077.8001504,1671368397.544,520,169262,99659
11888,90077.8001504,1671368397.544,520,169262,99659
11889,90077.81571463333,1671368397.544,520,169273,99594
11889,90077.81571463333,1671368397.544,520,169273,99594
11890,90077.8251805551,1671368397.544,519,169169,99564
11890,90077.83246771965,1671368397.544,519,169169,99564
11891,90077.8397548842,1671368397.544,518,169057,99505
11891,90077.84704204876,1671368397.544,518,169057,99505
11892,90077.85432921331,1671368397.642,519,169029,99484
11892,90077.86161637786,1671368397.642,519,169029,99484
11893,90077.86890354242,1671368397.642,519,169001,99479
11893,90077.87619070697,1671368397.642,519,169001,99479
11894,90077.88347787152,1671368397.642,518,168922,99505
11894,90077.89076503608,1671368397.642,518,168922,99505
11895,90077.89805220063,1671368397.642,520,168888,99525
11895,90077.90533936518,1671368397.642,520,168888,99525
11896,90077.91262652974,1671368397.642,521,168966,99580
11896,90077.91991369429,1671368397.642,521,168966,99580
11897,90077.92720085885,1671368397.642,518,168947,99605
11897,90077.9344880234,1671368397.642,518,168947,99605
11898,90077.94177518795,1671368397.738,519,168945,99618
11898,90077.9490623525,1671368397.738,519,168945,99618
11899,90077.95634951706,1671368397.738,517,168956,99638
11899,90077.96363668161,1671368397.738,517,168956,99638
11900,90077.98722464275,1671368397.738,518,168919,99643
11900,90077.99479783804,1671368397.738,518,168919,99643
11901,90078.00237103332,1671368397.738,517,168984,99649
11901,90078.0099442286,1671368397.738,517,168984,99649
11902,90078.01751742388,1671368397.738,520,169036,99654
11902,90078.02509061916,1671368397.738,520,169036,99654
11903,90078.03266381445,1671368397.738,519,168945,99681
11903,90078.04023700973,1671368397.738,519,168945,99681
11904,90078.04781020501,1671368397.823,520,168909,99674
11904,90078.0553834003,1671368397.823,520,168909,99674
11905,90078.06295659558,1671368397.823,520,168889,99677
11905,90078.07052979086,1671368397.823,520,168889,99677
11906,90078.07810298614,1671368397.823,519,168938,99657
11906,90078.08567618142,1671368397.823,519,168938,99657
11907,90078.0932493767,1671368397.823,519,168903,99646
11907,90078.10082257199,1671368397.823,519,168903,99646
11908,90078.10839576727,1671368397.823,518,168808,99657
11908,90078.11596896255,1671368397.823,518,168808,99657
11909,90078.12354215783,1671368397.823,519,168903,99645
11909,90078.13111535311,1671368397.823,519,168903,99645
11910,90078.13483282091,1671368397.918,519,168752,99612
11910,90078.1414550108,1671368397.918,519,168752,99612
11911,90078.14807720069,1671368397.918,520,168857,99617
11911,90078.15469939058,1671368397.918,520,168857,99617
11912,90078.16132158047,1671368397.918,520,168850,99627
11912,90078.16794377036,1671368397.918,520,168850,99627
11913,90078.17456596025,1671368397.918,519,168821,99592
11913,90078.18118815013,1671368397.918,519,168821,99592
11914,90078.18781034002,1671368397.918,520,168834,99598
11914,90078.19443252991,1671368397.918,520,168834,99598
11915,90078.2010547198,1671368397.918,518,168884,99576
11915,90078.20767690969,1671368397.918,518,168884,99576
11916,90078.21429909958,1671368398.02,520,168805,99568
11916,90078.22092128947,1671368398.02,520,168805,99568
11917,90078.22754347936,1671368398.02,520,168914,99560
11917,90078.23416566924,1671368398.02,520,168914,99560
11918,90078.24078785913,1671368398.02,519,168818,99512
11918,90078.24741004902,1671368398.02,519,168818,99512
11919,90078.25403223891,1671368398.02,520,168890,99520
11919,90078.2606544288,1671368398.02,520,168890,99520
11920,90078.29940644586,1671368398.02,520,168909,99551
11920,90078.30731993497,1671368398.02,520,168909,99551
11921,90078.31523342409,1671368398.02,520,168862,99514
11921,90078.3231469132,1671368398.02,520,168862,99514
11922,90078.33106040231,1671368398.11,519,168890,99508
11922,90078.33897389143,1671368398.11,519,168890,99508
11923,90078.34688738054,1671368398.11,519,168804,99480
11923,90078.35480086965,1671368398.11,519,168804,99480
11924,90078.36271435877,1671368398.11,520,168865,99515
11924,90078.37062784788,1671368398.11,520,168865,99515
11925,90078.37854133699,1671368398.11,518,168835,99485
11925,90078.3864548261,1671368398.11,518,168835,99485
11926,90078.39436831522,1671368398.11,521,168917,99449
11926,90078.40228180433,1671368398.11,521,168917,99449
11927,90078.41019529344,1671368398.11,521,168831,99456
11927,90078.41810878256,1671368398.11,521,168831,99456
11928,90078.42602227167,1671368398.195,520,168886,99449
11928,90078.43393576078,1671368398.195,520,168886,99449
11929,90078.4418492499,1671368398.195,522,168874,99441
11929,90078.44976273901,1671368398.195,522,168874,99441
11930,90078.45007765008,1671368398.195,521,168917,99409
11930,90078.45685997441,1671368398.195,521,168917,99409
11931,90078.46364229874,1671368398.195,520,168908,99430
11931,90078.47042462307,1671368398.195,520,168908,99430
11932,90078.4772069474,1671368398.195,519,168887,99384
11932,90078.48398927173,1671368398.195,519,168887,99384
11933,90078.49077159606,1671368398.195,519,168876,99376
11933,90078.49755392039,1671368398.195,519,168876,99376
11934,90078.50433624472,1671368398.296,520,168813,99338
11934,90078.51111856905,1671368398.296,520,168813,99338
11935,90078.51790089338,1671368398.296,520,168885,99326
11935,90078.5246832177,1671368398.296,520,168885,99326
11936,90078.53146554204,1671368398.296,521,168895,99319
11936,90078.53824786637,1671368398.296,521,168895,99319
11937,90078.5450301907,1671368398.296,519,168924,99304
11937,90078.55181251503,1671368398.296,519,168924,99304
11938,90078.55859483936,1671368398.296,520,169010,99301
11938,90078.56537716369,1671368398.296,520,169010,99301
11939,90078.57215948802,1671368398.296,519,168891,99279
11939,90078.57894181235,1671368398.296,519,168891,99279
11940,90078.60910777365,1671368398.393,521,168864,99270
11940,90078.61695834628,1671368398.393,521,168864,99270
11941,90078.6248089189,1671368398.393,519,169002,99265
11941,90078.63265949153,1671368398.393,519,169002,99265
11942,90078.64051006416,1671368398.393,521,168966,99264
11942,90078.64836063678,1671368398.393,521,168966,99264
11943,90078.65621120941,1671368398.393,522,168981,99264
11943,90078.66406178204,1671368398.393,522,168981,99264
11944,90078.67191235466,1671368398.393,522,168992,99284
11944,90078.67976292729,1671368398.393,522,168992,99284
11945,90078.68761349992,1671368398.393,522,169002,99270
11945,90078.69546407255,1671368398.393,522,169002,99270
11946,90078.70331464517,1671368398.486,520,168909,99284
11946,90078.7111652178,1671368398.486,520,168909,99284
11947,90078.71901579043,1671368398.486,521,168887,99275
11947,90078.72686636305,1671368398.486,521,168887,99275
11948,90078.73471693568,1671368398.486,520,168831,99255
11948,90078.7425675083,1671368398.486,520,168831,99255
11949,90078.75041808093,1671368398.486,520,168685,99258
11949,90078.75826865356,1671368398.486,520,168685,99258
11950,90078.76778529564,1671368398.486,519,168765,99240
11950,90078.77505349109,1671368398.486,519,168765,99240
11951,90078.78232168654,1671368398.486,521,168680,99230
11951,90078.78958988198,1671368398.486,521,168680,99230
11952,90078.79685807743,1671368398.576,521,168703,99220
11952,90078.80412627288,1671368398.576,521,168703,99220
11953,90078.81139446833,1671368398.576,522,168656,99221
11953,90078.81866266378,1671368398.576,522,168656,99221
11954,90078.82593085922,1671368398.576,520,168610,99206
11954,90078.83319905467,1671368398.576,520,168610,99206
11955,90078.84046725012,1671368398.576,520,168505,99209
11955,90078.84773544557,1671368398.576,520,168505,99209
11956,90078.85500364102,1671368398.576,519,168505,99176
11956,90078.86227183646,1671368398.576,519,168505,99176
11957,90078.86954003191,1671368398.576,520,168511,99200
11957,90078.87680822736,1671368398.576,520,168511,99200
11958,90078.88407642281,1671368398.672,520,168557,99196
11958,90078.89134461826,1671368398.672,520,168557,99196
11959,90078.8986128137,1671368398.672,521,168458,99178
11959,90078.90588100915,1671368398.672,521,168458,99178
11960,90078.92094380877,1671368398.672,520,168513,99180
11960,90078.92829751653,1671368398.672,520,168513,99180
11961,90078.93565122428,1671368398.672,519,168507,99187
11961,90078.94300493204,1671368398.672,519,168507,99187
11962,90078.95035863979,1671368398.672,518,168483,99157
11962,90078.95771234755,1671368398.672,518,168483,99157
11963,90078.9650660553,1671368398.672,519,168495,99120
11963,90078.97241976306,1671368398.672,519,168495,99120
11964,90078.97977347081,1671368398.762,519,168515,99087
11964,90078.98712717857,1671368398.762,519,168515,99087
11965,90078.99448088632,1671368398.762,520,168421,99001
11965,90079.00183459408,1671368398.762,520,168421,99001
11966,90079.00918830183,1671368398.762,519,168344,98956
11966,90079.01654200959,1671368398.762,519,168344,98956
11967,90079.02389571734,1671368398.762,519,168345,98914
11967,90079.0312494251,1671368398.762,519,168345,98914
11968,90079.03860313285,1671368398.762,521,168364,98893
11968,90079.04595684061,1671368398.762,521,168364,98893
11969,90079.05331054836,1671368398.762,521,168270,98881
11969,90079.06066425612,1671368398.762,521,168270,98881
11970,90079.07445989698,1671368398.861,520,168271,98907
11970,90079.08149809757,1671368398.861,520,168271,98907
11971,90079.08853629816,1671368398.861,519,168257,98905
11971,90079.09557449876,1671368398.861,519,168257,98905
11972,90079.10261269935,1671368398.861,520,168281,98928
11972,90079.10965089995,1671368398.861,520,168281,98928
11973,90079.11668910054,1671368398.861,519,168355,98914
11973,90079.12372730114,1671368398.861,519,168355,98914
11974,90079.13076550173,1671368398.861,521,168275,98923
11974,90079.13780370232,1671368398.861,521,168275,98923
11975,90079.14484190292,1671368398.861,520,168316,98863
11975,90079.15188010351,1671368398.861,520,168316,98863
11976,90079.1589183041,1671368398.951,523,168238,98759
11976,90079.1659565047,1671368398.951,523,168238,98759
11977,90079.1729947053,1671368398.951,520,168324,98728
11977,90079.18003290589,1671368398.951,520,168324,98728
11978,90079.18707110648,1671368398.951,520,168223,98718
11978,90079.19410930708,1671368398.951,520,168223,98718
11979,90079.20114750767,1671368398.951,520,168160,98739
11979,90079.20818570827,1671368398.951,520,168160,98739
11980,90079.23375699078,1671368398.951,520,168270,98753
11980,90079.24084404386,1671368398.951,520,168270,98753
11981,90079.24793109694,1671368398.951,520,168219,98769
11981,90079.25501815001,1671368398.951,520,168219,98769
11982,90079.26210520309,1671368399.054,521,168237,98804
11982,90079.26919225616,1671368399.054,521,168237,98804
11983,90079.27627930924,1671368399.054,521,168276,98837
11983,90079.28336636232,1671368399.054,521,168276,98837
11984,90079.2904534154,1671368399.054,521,168301,98885
11984,90079.29754046847,1671368399.054,521,168301,98885
11985,90079.30462752155,1671368399.054,522,168335,98912
11985,90079.31171457462,1671368399.054,522,168335,98912
11986,90079.3188016277,1671368399.054,520,168294,98951
11986,90079.32588868077,1671368399.054,520,168294,98951
11987,90079.33297573385,1671368399.054,519,168381,98996
11987,90079.34006278693,1671368399.054,519,168381,98996
11988,90079.34714984,1671368399.145,520,168452,98977
11988,90079.35423689308,1671368399.145,520,168452,98977
11989,90079.36132394616,1671368399.145,520,168416,98983
11989,90079.36841099923,1671368399.145,520,168416,98983
11990,90079.39704356703,1671368399.145,521,168383,99004
11990,90079.40440284902,1671368399.145,521,168383,99004
11991,90079.411762131,1671368399.145,519,168461,99034
11991,90079.41912141298,1671368399.145,519,168461,99034
11992,90079.42648069496,1671368399.145,520,168490,99028
11992,90079.43383997695,1671368399.145,520,168490,99028
11993,90079.44119925893,1671368399.145,521,168427,99083
11993,90079.44855854091,1671368399.145,521,168427,99083
11994,90079.4559178229,1671368399.234,520,168492,99086
11994,90079.46327710488,1671368399.234,520,168492,99086
11995,90079.47063638686,1671368399.234,521,168572,99086
11995,90079.47799566884,1671368399.234,521,168572,99086
11996,90079.48535495083,1671368399.234,520,168498,99077
11996,90079.49271423281,1671368399.234,520,168498,99077
11997,90079.50007351479,1671368399.234,520,168563,99069
11997,90079.50743279677,1671368399.234,520,168563,99069
11998,90079.51479207876,1671368399.234,522,168545,99092
11998,90079.52215136074,1671368399.234,522,168545,99092
11999,90079.52951064272,1671368399.234,521,168508,99071
11999,90079.5368699247,1671368399.234,521,168508,99071
12000,90079.54615710748,1671368399.33,522,168584,99101
12000,90079.55313373283,1671368399.33,522,168584,99101
12001,90079.56011035817,1671368399.33,521,168629,99086
12001,90079.56708698352,1671368399.33,521,168629,99086
12002,90079.57406360886,1671368399.33,518,168560,99097
12002,90079.5810402342,1671368399.33,518,168560,99097
12003,90079.58801685955,1671368399.33,519,168536,99094
12003,90079.59499348489,1671368399.33,519,168536,99094
12004,90079.60197011023,1671368399.33,520,168456,99060
12004,90079.60894673558,1671368399.33,520,168456,99060
12005,90079.61592336092,1671368399.33,520,168420,99040
12005,90079.62289998627,1671368399.33,520,168420,99040
12006,90079.62987661161,1671368399.421,521,168388,99037
12006,90079.63685323695,1671368399.421,521,168388,99037
12007,90079.6438298623,1671368399.421,519,168248,99004
12007,90079.65080648764,1671368399.421,519,168248,99004
12008,90079.65778311298,1671368399.421,521,168214,98980
12008,90079.66475973833,1671368399.421,521,168214,98980
12009,90079.67173636367,1671368399.421,520,168104,98993
12009,90079.67871298901,1671368399.421,520,168104,98993
12010,90079.70276373079,1671368399.421,518,168142,98980
12010,90079.70988798628,1671368399.421,518,168142,98980
12011,90079.71701224176,1671368399.421,519,168148,98947
12011,90079.72413649724,1671368399.421,519,168148,98947
12012,90079.73126075273,1671368399.52,518,168074,98937
12012,90079.73838500821,1671368399.52,518,168074,98937
12013,90079.7455092637,1671368399.52,521,168107,98952
12013,90079.75263351918,1671368399.52,521,168107,98952
12014,90079.75975777466,1671368399.52,521,168057,98901
12014,90079.76688203015,1671368399.52,521,168057,98901
12015,90079.77400628563,1671368399.52,520,168091,98907
12015,90079.78113054112,1671368399.52,520,168091,98907
12016,90079.7882547966,1671368399.52,519,168001,98886
12016,90079.79537905208,1671368399.52,519,168001,98886
12017,90079.80250330757,1671368399.52,520,168076,98872
12017,90079.80962756305,1671368399.52,520,168076,98872
12018,90079.81675181854,1671368399.612,520,168052,98864
12018,90079.82387607402,1671368399.612,520,168052,98864
12019,90079.8310003295,1671368399.612,519,168015,98871
12019,90079.83812458499,1671368399.612,519,168015,98871
12020,90079.86322712572,1671368399.612,519,168005,98837
12020,90079.87059859809,1671368399.612,519,168005,98837
12021,90079.87797007046,1671368399.612,522,168049,98790
12021,90079.88534154283,1671368399.612,522,168049,98790
12022,90079.8927130152,1671368399.612,522,167893,98750
12022,90079.90008448757,1671368399.612,522,167893,98750
12023,90079.90745595994,1671368399.612,521,167889,98740
12023,90079.91482743231,1671368399.612,521,167889,98740
12024,90079.92219890468,1671368399.701,521,167927,98741
12024,90079.92957037705,1671368399.701,521,167927,98741
12025,90079.93694184942,1671368399.701,518,167939,98699
12025,90079.94431332179,1671368399.701,518,167939,98699
12026,90079.95168479416,1671368399.701,520,167899,98681
12026,90079.95905626653,1671368399.701,520,167899,98681
12027,90079.9664277389,1671368399.701,519,167880,98684
12027,90079.97379921126,1671368399.701,519,167880,98684
12028,90079.98117068363,1671368399.701,520,167887,98694
12028,90079.988542156,1671368399.701,520,167887,98694
12029,90079.99591362837,1671368399.701,519,167799,98665
12029,90080.00328510074,1671368399.701,519,167799,98665
12030,90080.0128931423,1671368399.796,521,167900,98673
12030,90080.0198259751,1671368399.796,521,167900,98673
12031,90080.02675880792,1671368399.796,522,167861,98649
12031,90080.03369164073,1671368399.796,522,167861,98649
12032,90080.04062447353,1671368399.796,521,167857,98609
12032,90080.04755730634,1671368399.796,521,167857,98609
12033,90080.05449013915,1671368399.796,520,167840,98611
12033,90080.06142297196,1671368399.796,520,167840,98611
12034,90080.06835580477,1671368399.796,520,167874,98594
12034,90080.07528863758,1671368399.796,520,167874,98594
12035,90080.0822214704,1671368399.796,521,167869,98591
12035,90080.0891543032,1671368399.796,521,167869,98591
12036,90080.09608713601,1671368399.895,520,167962,98573
12036,90080.10301996882,1671368399.895,520,167962,98573
12037,90080.10995280163,1671368399.895,520,167869,98548
12037,90080.11688563444,1671368399.895,520,167869,98548
12038,90080.12381846725,1671368399.895,522,167899,98557
12038,90080.13075130006,1671368399.895,522,167899,98557
12039,90080.13768413287,1671368399.895,521,167785,98554
12039,90080.14461696568,1671368399.895,521,167785,98554
12040,90080.17504084161,1671368399.895,522,167851,98526
12040,90080.18271397444,1671368399.895,522,167851,98526
12041,90080.19038710727,1671368399.895,519,167842,98530
12041,90080.1980602401,1671368399.895,519,167842,98530
12042,90080.20573337293,1671368399.986,519,167908,98557
12042,90080.21340650576,1671368399.986,519,167908,98557
12043,90080.22107963859,1671368399.986,521,167941,98531
12043,90080.22875277142,1671368399.986,521,167941,98531
12044,90080.23642590425,1671368399.986,520,167887,98520
12044,90080.24409903708,1671368399.986,520,167887,98520
12045,90080.25177216991,1671368399.986,521,167908,98490
12045,90080.25944530274,1671368399.986,521,167908,98490
12046,90080.26711843557,1671368399.986,522,167886,98510
12046,90080.2747915684,1671368399.986,522,167886,98510
12047,90080.28246470123,1671368399.986,522,167899,98480
12047,90080.29013783406,1671368399.986,522,167899,98480
12048,90080.29781096689,1671368400.074,521,167865,98479
12048,90080.30548409972,1671368400.074,521,167865,98479
12049,90080.31315723255,1671368400.074,520,167884,98470
12049,90080.32083036538,1671368400.074,520,167884,98470
12050,90080.32753312691,1671368400.074,520,167915,98474
12050,90080.33448004696,1671368400.074,520,167915,98474
12051,90080.34142696702,1671368400.074,520,167949,98461
12051,90080.34837388707,1671368400.074,520,167949,98461
12052,90080.35532080712,1671368400.074,521,168011,98456
12052,90080.36226772718,1671368400.074,521,168011,98456
12053,90080.36921464723,1671368400.074,523,168018,98450
12053,90080.37616156728,1671368400.074,523,168018,98450
12054,90080.38310848734,1671368400.17,522,167945,98482
12054,90080.39005540739,1671368400.17,522,167945,98482
12055,90080.39700232745,1671368400.17,521,167896,98447
12055,90080.4039492475,1671368400.17,521,167896,98447
12056,90080.41089616755,1671368400.17,522,168024,98476
12056,90080.4178430876,1671368400.17,522,168024,98476
12057,90080.42479000766,1671368400.17,520,168048,98442
12057,90080.43173692771,1671368400.17,520,168048,98442
12058,90080.43868384777,1671368400.17,520,167944,98442
12058,90080.44563076782,1671368400.17,520,167944,98442
12059,90080.45257768787,1671368400.17,521,168031,98443
12059,90080.45952460793,1671368400.17,521,168031,98443
12060,90080.48274639563,1671368400.274,522,167851,98401
12060,90080.49023630582,1671368400.274,522,167851,98401
12061,90080.49772621601,1671368400.274,522,167897,98349
12061,90080.5052161262,1671368400.274,522,167897,98349
12062,90080.51270603639,1671368400.274,522,167736,98295
12062,90080.52019594658,1671368400.274,522,167736,98295
12063,90080.52768585677,1671368400.274,521,167692,98257
12063,90080.53517576696,1671368400.274,521,167692,98257
12064,90080.54266567715,1671368400.274,522,167635,98214
12064,90080.55015558733,1671368400.274,522,167635,98214
12065,90080.55764549752,1671368400.274,521,167559,98180
12065,90080.56513540771,1671368400.274,521,167559,98180
12066,90080.5726253179,1671368400.36,520,167477,98147
12066,90080.58011522809,1671368400.36,520,167477,98147
12067,90080.58760513828,1671368400.36,521,167471,98150
12067,90080.59509504847,1671368400.36,521,167471,98150
12068,90080.60258495866,1671368400.36,521,167494,98154
12068,90080.61007486885,1671368400.36,521,167494,98154
12069,90080.61756477904,1671368400.36,522,167369,98122
12069,90080.62505468923,1671368400.36,522,167369,98122
12070,90080.64373832046,1671368400.36,523,167329,98150
12070,90080.65054960849,1671368400.36,523,167329,98150
12071,90080.65736089651,1671368400.36,522,167371,98100
12071,90080.66417218454,1671368400.36,522,167371,98100
12072,90080.67098347256,1671368400.452,521,167332,98123
12072,90080.67779476059,1671368400.452,521,167332,98123
12073,90080.68460604861,1671368400.452,522,167272,98144
12073,90080.69141733664,1671368400.452,522,167272,98144
12074,90080.69822862466,1671368400.452,519,167318,98112
12074,90080.70503991269,1671368400.452,519,167318,98112
12075,90080.71185120071,1671368400.452,519,167295,98110
12075,90080.71866248874,1671368400.452,519,167295,98110
12076,90080.72547377677,1671368400.452,521,167330,98113
12076,90080.73228506479,1671368400.452,521,167330,98113
12077,90080.73909635282,1671368400.452,520,167257,98136
12077,90080.74590764084,1671368400.452,520,167257,98136
12078,90080.75271892887,1671368400.545,520,167205,98109
12078,90080.75953021689,1671368400.545,520,167205,98109
12079,90080.76634150492,1671368400.545,520,167270,98098
12079,90080.77315279294,1671368400.545,520,167270,98098
12080,90080.79551441559,1671368400.545,521,167183,98100
12080,90080.80277791532,1671368400.545,521,167183,98100
12081,90080.81004141505,1671368400.545,519,167154,98117
12081,90080.81730491479,1671368400.545,519,167154,98117
12082,90080.82456841452,1671368400.545,519,167198,98102
12082,90080.83183191426,1671368400.545,519,167198,98102
12083,90080.83909541399,1671368400.545,520,167164,98094
12083,90080.84635891372,1671368400.545,520,167164,98094
12084,90080.85362241346,1671368400.635,522,167111,98073
12084,90080.8608859132,1671368400.635,522,167111,98073
12085,90080.86814941293,1671368400.635,522,167191,98123
12085,90080.87541291266,1671368400.635,522,167191,98123
12086,90080.8826764124,1671368400.635,521,167122,98063
12086,90080.88993991213,1671368400.635,521,167122,98063
12087,90080.89720341186,1671368400.635,521,167114,98019
12087,90080.9044669116,1671368400.635,521,167114,98019
12088,90080.91173041133,1671368400.635,520,167108,98001
12088,90080.91899391107,1671368400.635,520,167108,98001
12089,90080.9262574108,1671368400.635,520,167054,97969
12089,90080.93352091053,1671368400.635,520,167054,97969
12090,90080.94716891597,1671368400.736,519,167031,97987
12090,90080.95416652379,1671368400.736,519,167031,97987
12091,90080.96116413162,1671368400.736,520,167057,97970
12091,90080.96816173944,1671368400.736,520,167057,97970
12092,90080.97515934726,1671368400.736,520,167059,97920
12092,90080.98215695508,1671368400.736,520,167059,97920
12093,90080.9891545629,1671368400.736,521,166964,97817
12093,90080.99615217073,1671368400.736,521,166964,97817
12094,90081.00314977855,1671368400.736,521,166949,97640
12094,90081.01014738638,1671368400.736,521,166949,97640
12095,90081.0171449942,1671368400.736,521,166859,97521
12095,90081.02414260202,1671368400.736,521,166859,97521
12096,90081.03114020985,1671368400.825,520,166876,97463
12096,90081.03813781767,1671368400.825,520,166876,97463
12097,90081.04513542549,1671368400.825,519,166852,97431
12097,90081.05213303331,1671368400.825,519,166852,97431
12098,90081.05913064114,1671368400.825,519,166865,97481
12098,90081.06612824896,1671368400.825,519,166865,97481
12099,90081.07312585678,1671368400.825,518,166862,97528
12099,90081.0801234646,1671368400.825,518,166862,97528
12100,90081.10726900514,1671368400.825,519,166889,97640
12100,90081.11429397555,1671368400.825,519,166889,97640
12101,90081.12131894597,1671368400.825,521,166963,97708
12101,90081.12834391638,1671368400.825,521,166963,97708
12102,90081.1353688868,1671368400.913,520,166957,97781
12102,90081.14239385721,1671368400.913,520,166957,97781
12103,90081.14941882763,1671368400.913,519,167073,97819
12103,90081.15644379804,1671368400.913,519,167073,97819
12104,90081.16346876846,1671368400.913,520,167020,97849
12104,90081.17049373887,1671368400.913,520,167020,97849
12105,90081.17751870929,1671368400.913,520,167046,97889
12105,90081.1845436797,1671368400.913,520,167046,97889
12106,90081.19156865012,1671368400.913,518,167009,97911
12106,90081.19859362053,1671368400.913,518,167009,97911
12107,90081.20561859095,1671368400.913,520,167095,97928
12107,90081.21264356136,1671368400.913,520,167095,97928
12108,90081.21966853178,1671368401.018,521,167160,97965
12108,90081.22669350219,1671368401.018,521,167160,97965
12109,90081.2337184726,1671368401.018,521,167126,97986
12109,90081.24074344302,1671368401.018,521,167126,97986
12110,90081.26115186188,1671368401.018,520,167144,98013
12110,90081.26897421308,1671368401.018,520,167144,98013
12111,90081.27679656427,1671368401.018,521,167144,98032
12111,90081.28461891547,1671368401.018,521,167144,98032
12112,90081.29244126666,1671368401.018,520,167148,98061
12112,90081.30026361786,1671368401.018,520,167148,98061
12113,90081.30808596905,1671368401.018,518,167219,98104
12113,90081.31590832025,1671368401.018,518,167219,98104
12114,90081.32373067144,1671368401.112,518,167173,98112
12114,90081.33155302264,1671368401.112,518,167173,98112
12115,90081.33937537383,1671368401.112,517,167239,98150
12115,90081.34719772503,1671368401.112,517,167239,98150
12116,90081.35502007623,1671368401.112,520,167264,98149
12116,90081.36284242742,1671368401.112,520,167264,98149
12117,90081.37066477862,1671368401.112,520,167303,98197
12117,90081.37848712981,1671368401.112,520,167303,98197
12118,90081.38630948101,1671368401.112,518,167300,98165
12118,90081.3941318322,1671368401.112,518,167300,98165
12119,90081.4019541834,1671368401.112,519,167310,98234
12119,90081.4097765346,1671368401.112,519,167310,98234
12120,90081.42414642262,1671368401.201,519,167321,98236
12120,90081.43145036591,1671368401.201,519,167321,98236
12121,90081.4387543092,1671368401.201,518,167250,98262
12121,90081.44605825249,1671368401.201,518,167250,98262
12122,90081.45336219578,1671368401.201,519,167154,98259
12122,90081.46066613907,1671368401.201,519,167154,98259
12123,90081.46797008236,1671368401.201,520,167111,98299
12123,90081.47527402565,1671368401.201,520,167111,98299
12124,90081.48257796894,1671368401.201,520,167007,98289
12124,90081.48988191223,1671368401.201,520,167007,98289
12125,90081.49718585552,1671368401.201,521,167009,98300
12125,90081.50448979881,1671368401.201,521,167009,98300
12126,90081.5117937421,1671368401.295,520,166956,98319
12126,90081.51909768539,1671368401.295,520,166956,98319
12127,90081.52640162868,1671368401.295,520,166949,98377
12127,90081.53370557197,1671368401.295,520,166949,98377
12128,90081.54100951526,1671368401.295,520,166903,98429
12128,90081.54831345855,1671368401.295,520,166903,98429
12129,90081.55561740184,1671368401.295,520,166936,98477
12129,90081.56292134513,1671368401.295,520,166936,98477
12130,90081.5761355753,1671368401.295,519,166938,98510
12130,90081.58340306595,1671368401.295,519,166938,98510
12131,90081.59067055659,1671368401.295,519,166916,98531
12131,90081.59793804723,1671368401.295,519,166916,98531
12132,90081.60520553787,1671368401.394,521,166871,98562
12132,90081.61247302851,1671368401.394,521,166871,98562
12133,90081.61974051915,1671368401.394,521,166997,98590
12133,90081.62700800979,1671368401.394,521,166997,98590
12134,90081.63427550043,1671368401.394,521,167006,98590
12134,90081.64154299107,1671368401.394,521,167006,98590
12135,90081.64881048171,1671368401.394,521,166966,98605
12135,90081.65607797235,1671368401.394,521,166966,98605
12136,90081.66334546299,1671368401.394,520,166967,98639
12136,90081.67061295363,1671368401.394,520,166967,98639
12137,90081.67788044427,1671368401.394,519,167035,98655
12137,90081.68514793491,1671368401.394,519,167035,98655
12138,90081.69241542555,1671368401.489,519,167025,98667
12138,90081.6996829162,1671368401.489,519,167025,98667
12139,90081.70695040683,1671368401.489,520,167050,98674
12139,90081.71421789748,1671368401.489,520,167050,98674
12140,90081.73842368454,1671368401.489,520,167020,98712
12140,90081.74596652252,1671368401.489,520,167020,98712
12141,90081.7535093605,1671368401.489,520,167002,98691
12141,90081.76105219848,1671368401.489,520,167002,98691
12142,90081.76859503645,1671368401.489,521,166934,98744
12142,90081.77613787443,1671368401.489,521,166934,98744
12143,90081.78368071241,1671368401.489,520,167012,98712
12143,90081.79122355039,1671368401.489,520,167012,98712
12144,90081.79876638837,1671368401.576,520,167033,98753
12144,90081.80630922635,1671368401.576,520,167033,98753
12145,90081.81385206433,1671368401.576,518,166990,98767
12145,90081.8213949023,1671368401.576,518,166990,98767
12146,90081.82893774028,1671368401.576,520,167036,98773
12146,90081.83648057826,1671368401.576,520,167036,98773
12147,90081.84402341624,1671368401.576,519,167035,98829
12147,90081.85156625422,1671368401.576,519,167035,98829
12148,90081.8591090922,1671368401.576,520,167047,98815
12148,90081.86665193018,1671368401.576,520,167047,98815
12149,90081.87419476816,1671368401.576,522,167009,98895
12149,90081.88173760613,1671368401.576,522,167009,98895
12150,90081.88770574133,1671368401.731,520,167081,98941
12150,90081.89448022081,1671368401.731,520,167081,98941
12151,90081.9012547003,1671368401.731,519,167059,98995
12151,90081.90802917977,1671368401.731,519,167059,98995
12152,90081.91480365925,1671368401.731,519,167046,99062
12152,90081.92157813873,1671368401.731,519,167046,99062
12153,90081.92835261821,1671368401.731,520,167131,99136
12153,90081.93512709769,1671368401.731,520,167131,99136
12154,90081.94190157717,1671368401.731,521,167166,99205
12154,90081.94867605665,1671368401.731,521,167166,99205
12155,90081.95545053613,1671368401.731,520,167117,99281
12155,90081.96222501561,1671368401.731,520,167117,99281
12156,90081.96899949509,1671368401.778,522,167193,99311
12156,90081.97577397457,1671368401.778,522,167193,99311
12157,90081.98254845405,1671368401.778,522,167175,99327
12157,90081.98932293353,1671368401.778,522,167175,99327
12158,90081.99609741301,1671368401.778,521,167185,99345
12158,90082.00287189249,1671368401.778,521,167185,99345
12159,90082.00964637197,1671368401.778,519,167256,99344
12159,90082.01642085145,1671368401.778,519,167256,99344
12160,90082.07139140187,1671368401.778,522,167262,99332
12160,90082.07558869042,1671368401.778,522,167262,99332
12161,90082.07978597897,1671368401.778,520,167207,99337
12161,90082.08398326753,1671368401.778,520,167207,99337
12162,90082.08818055608,1671368401.859,521,167273,99302
12162,90082.09237784463,1671368401.859,521,167273,99302
12163,90082.09657513318,1671368401.859,522,167205,99343
12163,90082.10077242173,1671368401.859,522,167205,99343
12164,90082.10496971029,1671368401.859,521,167319,99354
12164,90082.10916699884,1671368401.859,521,167319,99354
12165,90082.11336428739,1671368401.859,522,167324,99410
12165,90082.11756157594,1671368401.859,522,167324,99410
12166,90082.1217588645,1671368401.859,520,167386,99394
12166,90082.12595615305,1671368401.859,520,167386,99394
12167,90082.1301534416,1671368401.859,522,167319,99350
12167,90082.13435073015,1671368401.859,522,167319,99350
12168,90082.1385480187,1671368401.962,520,167345,99139
12168,90082.14274530725,1671368401.962,520,167345,99139
12169,90082.1469425958,1671368401.962,521,167294,98966
12169,90082.15113988436,1671368401.962,521,167294,98966
12170,90082.20539108447,1671368401.962,521,167262,98885
12170,90082.21290835334,1671368401.962,521,167262,98885
12171,90082.2204256222,1671368401.962,521,167266,98909
12171,90082.22794289107,1671368401.962,521,167266,98909
12172,90082.23546015994,1671368401.962,523,167305,98967
12172,90082.2429774288,1671368401.962,523,167305,98967
12173,90082.25049469767,1671368401.962,522,167340,98980
12173,90082.25801196654,1671368401.962,522,167340,98980
12174,90082.2655292354,1671368402.046,521,167421,99041
12174,90082.27304650427,1671368402.046,521,167421,99041
12175,90082.28056377314,1671368402.046,519,167315,99053
12175,90082.288081042,1671368402.046,519,167315,99053
12176,90082.29559831087,1671368402.046,520,167383,99005
12176,90082.30311557974,1671368402.046,520,167383,99005
12177,90082.3106328486,1671368402.046,520,167340,98997
12177,90082.31815011747,1671368402.046,520,167340,98997
12178,90082.32566738634,1671368402.046,521,167393,99028
12178,90082.3331846552,1671368402.046,521,167393,99028
12179,90082.34070192407,1671368402.046,522,167346,99037
12179,90082.34821919294,1671368402.046,522,167346,99037
12180,90082.35735230798,1671368402.141,522,167355,99072
12180,90082.36394336572,1671368402.141,522,167355,99072
12181,90082.37053442346,1671368402.141,521,167446,99085
12181,90082.3771254812,1671368402.141,521,167446,99085
12182,90082.38371653894,1671368402.141,519,167444,99122
12182,90082.39030759668,1671368402.141,519,167444,99122
12183,90082.39689865442,1671368402.141,520,167372,99148
12183,90082.40348971216,1671368402.141,520,167372,99148
12184,90082.4100807699,1671368402.141,519,167407,99143
12184,90082.41667182764,1671368402.141,519,167407,99143
12185,90082.42326288538,1671368402.141,521,167358,99166
12185,90082.42985394312,1671368402.141,521,167358,99166
12186,90082.43644500086,1671368402.234,519,167213,99169
12186,90082.4430360586,1671368402.234,519,167213,99169
12187,90082.44962711634,1671368402.234,521,167162,99163
12187,90082.45621817408,1671368402.234,521,167162,99163
12188,90082.46280923182,1671368402.234,520,167124,99154
12188,90082.46940028956,1671368402.234,520,167124,99154
12189,90082.4759913473,1671368402.234,521,167142,99180
12189,90082.48258240503,1671368402.234,521,167142,99180
12190,90082.51526453432,1671368402.234,519,167137,99167
12190,90082.522493455,1671368402.234,519,167137,99167
12191,90082.5297223757,1671368402.234,519,167078,99218
12191,90082.53695129638,1671368402.234,519,167078,99218
12192,90082.54418021707,1671368402.325,519,167119,99204
12192,90082.55140913776,1671368402.325,519,167119,99204
12193,90082.55863805844,1671368402.325,520,167052,99244
12193,90082.56586697913,1671368402.325,520,167052,99244
12194,90082.57309589982,1671368402.325,521,167061,99271
12194,90082.5803248205,1671368402.325,521,167061,99271
12195,90082.58755374119,1671368402.325,520,166999,99284
12195,90082.59478266188,1671368402.325,520,166999,99284
12196,90082.60201158257,1671368402.325,519,166998,99297
12196,90082.60924050325,1671368402.325,519,166998,99297
12197,90082.61646942394,1671368402.325,518,166941,99294
12197,90082.62369834463,1671368402.325,518,166941,99294
12198,90082.63092726532,1671368402.421,518,166951,99331
12198,90082.638156186,1671368402.421,518,166951,99331
12199,90082.64538510669,1671368402.421,518,166976,99358
12199,90082.65261402738,1671368402.421,518,166976,99358
12200,90082.66982884587,1671368402.421,519,166983,99391
12200,90082.67720330639,1671368402.421,519,166983,99391
12201,90082.68457776691,1671368402.421,520,166859,99398
12201,90082.69195222743,1671368402.421,520,166859,99398
12202,90082.69932668794,1671368402.421,519,166969,99411
12202,90082.70670114846,1671368402.421,519,166969,99411
12203,90082.71407560898,1671368402.421,520,166878,99421
12203,90082.7214500695,1671368402.421,520,166878,99421
12204,90082.72882453002,1671368402.51,520,166867,99439
12204,90082.73619899053,1671368402.51,520,166867,99439
12205,90082.74357345105,1671368402.51,520,166942,99476
12205,90082.75094791157,1671368402.51,520,166942,99476
12206,90082.75832237209,1671368402.51,519,166936,99462
12206,90082.7656968326,1671368402.51,519,166936,99462
12207,90082.77307129312,1671368402.51,518,166921,99509
12207,90082.78044575364,1671368402.51,518,166921,99509
12208,90082.78782021416,1671368402.51,518,166885,99487
12208,90082.79519467468,1671368402.51,518,166885,99487
12209,90082.8025691352,1671368402.51,520,166846,99496
12209,90082.80994359571,1671368402.51,520,166846,99496
12210,90082.8221441522,1671368402.612,518,166809,99498
12210,90082.829113391,1671368402.612,518,166809,99498
12211,90082.83608262979,1671368402.612,520,166866,99507
12211,90082.84305186858,1671368402.612,520,166866,99507
12212,90082.85002110737,1671368402.612,520,166812,99530
12212,90082.85699034616,1671368402.612,520,166812,99530
12213,90082.86395958495,1671368402.612,520,166898,99525
12213,90082.87092882374,1671368402.612,520,166898,99525
12214,90082.87789806254,1671368402.612,519,166835,99520
12214,90082.88486730133,1671368402.612,519,166835,99520
12215,90082.89183654012,1671368402.612,519,166870,99543
12215,90082.89880577891,1671368402.612,519,166870,99543
12216,90082.9057750177,1671368402.698,519,166906,99528
12216,90082.9127442565,1671368402.698,519,166906,99528
12217,90082.91971349528,1671368402.698,521,166925,99580
12217,90082.92668273408,1671368402.698,521,166925,99580
12218,90082.93365197287,1671368402.698,520,166995,99743
12218,90082.94062121166,1671368402.698,520,166995,99743
12219,90082.94759045045,1671368402.698,520,166929,99688
12219,90082.95455968924,1671368402.698,520,166929,99688
12220,90082.9813693592,1671368402.698,521,167018,99729
12220,90082.98816114942,1671368402.698,521,167018,99729
12221,90082.99495293964,1671368402.698,520,166985,99774
12221,90083.00174472986,1671368402.698,520,166985,99774
12222,90083.00853652008,1671368402.791,520,167054,99777
12222,90083.0153283103,1671368402.791,520,167054,99777
12223,90083.02212010052,1671368402.791,519,167103,99824
12223,90083.02891189074,1671368402.791,519,167103,99824
12224,90083.03570368096,1671368402.791,520,167119,99831
12224,90083.04249547118,1671368402.791,520,167119,99831
12225,90083.0492872614,1671368402.791,520,167143,99851
12225,90083.05607905162,1671368402.791,520,167143,99851
12226,90083.06287084184,1671368402.791,521,167195,99887
12226,90083.06966263206,1671368402.791,521,167195,99887
12227,90083.07645442228,1671368402.791,521,167203,99903
12227,90083.0832462125,1671368402.791,521,167203,99903
12228,90083.09003800272,1671368402.894,521,167271,99937
12228,90083.09682979294,1671368402.894,521,167271,99937
12229,90083.10362158316,1671368402.894,519,167245,99940
12229,90083.11041337338,1671368402.894,519,167245,99940
12230,90083.13864363894,1671368402.894,520,167227,99948
12230,90083.14645087748,1671368402.894,520,167227,99948
12231,90083.15425811602,1671368402.894,521,167297,99946
12231,90083.16206535455,1671368402.894,521,167297,99946
12232,90083.16987259309,1671368402.894,521,167247,99956
12232,90083.17767983163,1671368402.894,521,167247,99956
12233,90083.18548707016,1671368402.894,522,167228,99959
12233,90083.1932943087,1671368402.894,522,167228,99959
12234,90083.20110154724,1671368402.984,521,167290,99946
12234,90083.20890878577,1671368402.984,521,167290,99946
12235,90083.21671602431,1671368402.984,521,167238,99952
12235,90083.22452326285,1671368402.984,521,167238,99952
12236,90083.23233050139,1671368402.984,520,167203,99932
12236,90083.24013773992,1671368402.984,520,167203,99932
12237,90083.24794497846,1671368402.984,520,167209,99943
12237,90083.255752217,1671368402.984,520,167209,99943
12238,90083.26355945553,1671368402.984,519,167230,99956
12238,90083.27136669407,1671368402.984,519,167230,99956
12239,90083.2791739326,1671368402.984,520,167148,99955
12239,90083.28698117114,1671368402.984,520,167148,99955
12240,90083.29678242996,1671368403.071,520,167108,99957
12240,90083.3038575919,1671368403.071,520,167108,99957
12241,90083.31093275386,1671368403.071,522,167032,99949
12241,90083.3180079158,1671368403.071,522,167032,99949
12242,90083.32508307775,1671368403.071,522,167036,99974
12242,90083.3321582397,1671368403.071,522,167036,99974
12243,90083.33923340165,1671368403.071,522,166982,99965
12243,90083.3463085636,1671368403.071,522,166982,99965
12244,90083.35338372555,1671368403.071,521,166980,99986
12244,90083.3604588875,1671368403.071,521,166980,99986
12245,90083.36753404945,1671368403.071,521,166884,99983
12245,90083.3746092114,1671368403.071,521,166884,99983
12246,90083.38168437335,1671368403.166,521,166904,99982
12246,90083.3887595353,1671368403.166,521,166904,99982
12247,90083.39583469725,1671368403.166,520,166930,99996
12247,90083.4029098592,1671368403.166,520,166930,99996
12248,90083.40998502115,1671368403.166,522,166928,100028
12248,90083.4170601831,1671368403.166,522,166928,100028
12249,90083.42413534505,1671368403.166,522,166851,100060
12249,90083.431210507,1671368403.166,522,166851,100060
12250,90083.44725715568,1671368403.166,522,166939,100110
12250,90083.4546468039,1671368403.166,522,166939,100110
12251,90083.46203645213,1671368403.166,521,166881,100112
12251,90083.46942610035,1671368403.166,521,166881,100112
12252,90083.47681574857,1671368403.265,520,166823,100032
12252,90083.48420539679,1671368403.265,520,166823,100032
12253,90083.49159504501,1671368403.265,520,166795,99872
12253,90083.49898469323,1671368403.265,520,166795,99872
12254,90083.50637434145,1671368403.265,521,166726,99727
12254,90083.51376398967,1671368403.265,521,166726,99727
12255,90083.52115363789,1671368403.265,520,166742,99678
12255,90083.52854328611,1671368403.265,520,166742,99678
12256,90083.53593293433,1671368403.265,522,166799,99690
12256,90083.54332258255,1671368403.265,522,166799,99690
12257,90083.55071223078,1671368403.265,522,166758,99694
12257,90083.558101879,1671368403.265,522,166758,99694
12258,90083.56549152722,1671368403.36,522,166762,99635
12258,90083.57288117544,1671368403.36,522,166762,99635
12259,90083.58027082366,1671368403.36,521,166678,99601
12259,90083.58766047188,1671368403.36,521,166678,99601
12260,90083.60958639093,1671368403.36,520,166737,99630
12260,90083.61707087336,1671368403.36,520,166737,99630
12261,90083.62455535578,1671368403.36,521,166772,99706
12261,90083.63203983821,1671368403.36,521,166772,99706
12262,90083.63952432064,1671368403.36,520,166782,99783
12262,90083.64700880306,1671368403.36,520,166782,99783
12263,90083.65449328549,1671368403.36,521,166873,99885
12263,90083.66197776792,1671368403.36,521,166873,99885
12264,90083.66946225034,1671368403.451,519,166913,99952
12264,90083.67694673277,1671368403.451,519,166913,99952
12265,90083.6844312152,1671368403.451,521,166933,99981
12265,90083.69191569762,1671368403.451,521,166933,99981
12266,90083.69940018005,1671368403.451,520,166930,100018
12266,90083.70688466248,1671368403.451,520,166930,100018
12267,90083.7143691449,1671368403.451,521,166989,100033
12267,90083.72185362733,1671368403.451,521,166989,100033
12268,90083.72933810976,1671368403.451,521,166942,99992
12268,90083.73682259218,1671368403.451,521,166942,99992
12269,90083.74430707461,1671368403.451,520,166890,99884
12269,90083.75179155704,1671368403.451,520,166890,99884
12270,90083.76295843719,1671368403.541,521,166984,99848
12270,90083.7700647543,1671368403.541,521,166984,99848
12271,90083.7771710714,1671368403.541,520,167034,99849
12271,90083.7842773885,1671368403.541,520,167034,99849
12272,90083.79138370561,1671368403.541,522,166943,99856
12272,90083.79849002272,1671368403.541,522,166943,99856
12273,90083.80559633982,1671368403.541,520,166995,99862
12273,90083.81270265693,1671368403.541,520,166995,99862
12274,90083.81980897403,1671368403.541,521,167040,99858
12274,90083.82691529114,1671368403.541,521,167040,99858
12275,90083.83402160824,1671368403.541,522,167071,99871
12275,90083.84112792535,1671368403.541,522,167071,99871
12276,90083.84823424245,1671368403.647,519,167035,99896
12276,90083.85534055956,1671368403.647,519,167035,99896
12277,90083.86244687666,1671368403.647,520,167106,99896
12277,90083.86955319377,1671368403.647,520,167106,99896
12278,90083.87665951088,1671368403.647,519,167125,99921
12278,90083.88376582798,1671368403.647,519,167125,99921
12279,90083.89087214509,1671368403.647,520,167136,99953
12279,90083.89797846219,1671368403.647,520,167136,99953
12280,90083.92498325492,1671368403.647,520,167203,99958
12280,90083.9331961752,1671368403.647,520,167203,99958
12281,90083.94140909548,1671368403.647,521,167212,99959
12281,90083.94962201576,1671368403.647,521,167212,99959
12282,90083.95783493604,1671368403.735,521,167203,99982
12282,90083.96604785632,1671368403.735,521,167203,99982
12283,90083.9742607766,1671368403.735,519,167285,100012
12283,90083.98247369687,1671368403.735,519,167285,100012
12284,90083.99068661715,1671368403.735,521,167292,100000
12284,90083.99889953743,1671368403.735,521,167292,100000
12285,90084.00711245771,1671368403.735,520,167278,100001
12285,90084.01532537799,1671368403.735,520,167278,100001
12286,90084.02353829826,1671368403.735,521,167292,100001
12286,90084.03175121854,1671368403.735,521,167292,100001
12287,90084.03996413882,1671368403.735,521,167141,99984
12287,90084.0481770591,1671368403.735,521,167141,99984
12288,90084.05638997938,1671368403.837,522,167184,99938
12288,90084.06460289966,1671368403.837,522,167184,99938
12289,90084.07281581993,1671368403.837,522,167068,99925
12289,90084.08102874021,1671368403.837,522,167068,99925
12290,90084.0818787329,1671368403.837,522,167058,99894
12290,90084.08953330519,1671368403.837,522,167058,99894
12291,90084.09718787747,1671368403.837,520,167007,99879
12291,90084.10484244976,1671368403.837,520,167007,99879
12292,90084.11249702204,1671368403.837,519,166945,99856
12292,90084.12015159432,1671368403.837,519,166945,99856
12293,90084.12780616661,1671368403.837,518,166990,99866
12293,90084.1354607389,1671368403.837,518,166990,99866
12294,90084.14311531118,1671368403.921,519,167032,99831
12294,90084.15076988346,1671368403.921,519,167032,99831
12295,90084.15842445575,1671368403.921,520,166943,99855
12295,90084.16607902803,1671368403.921,520,166943,99855
12296,90084.17373360031,1671368403.921,523,166974,99853
12296,90084.1813881726,1671368403.921,523,166974,99853
12297,90084.18904274488,1671368403.921,521,166881,99825
12297,90084.19669731717,1671368403.921,521,166881,99825
12298,90084.20435188945,1671368403.921,520,166961,99826
12298,90084.21200646173,1671368403.921,520,166961,99826
12299,90084.21966103402,1671368403.921,521,166982,99845
12299,90084.2273156063,1671368403.921,521,166982,99845
12300,90084.232345586,1671368404.022,520,166904,99822
12300,90084.23890046519,1671368404.022,520,166904,99822
12301,90084.24545534438,1671368404.022,521,167009,99848
12301,90084.25201022357,1671368404.022,521,167009,99848
12302,90084.25856510276,1671368404.022,520,167038,99802
12302,90084.26511998195,1671368404.022,520,167038,99802
12303,90084.27167486114,1671368404.022,522,167035,99819
12303,90084.27822974033,1671368404.022,522,167035,99819
12304,90084.28478461952,1671368404.022,521,167039,99818
12304,90084.29133949871,1671368404.022,521,167039,99818
12305,90084.2978943779,1671368404.022,521,166999,99837
12305,90084.30444925709,1671368404.022,521,166999,99837
12306,90084.31100413628,1671368404.11,520,166906,99810
12306,90084.31755901547,1671368404.11,520,166906,99810
12307,90084.32411389466,1671368404.11,520,167005,99802
12307,90084.33066877385,1671368404.11,520,167005,99802
12308,90084.33722365304,1671368404.11,520,166951,99783
12308,90084.34377853223,1671368404.11,520,166951,99783
12309,90084.35033341142,1671368404.11,519,166966,99793
12309,90084.35688829061,1671368404.11,519,166966,99793
12310,90084.39255417709,1671368404.11,522,166989,99794
12310,90084.39949754713,1671368404.11,522,166989,99794
12311,90084.40644091717,1671368404.11,521,167006,99761
12311,90084.41338428721,1671368404.11,521,167006,99761
12312,90084.42032765725,1671368404.202,523,167030,99769
12312,90084.42727102729,1671368404.202,523,167030,99769
12313,90084.43421439733,1671368404.202,523,166952,99775
12313,90084.44115776737,1671368404.202,523,166952,99775
12314,90084.44810113742,1671368404.202,520,166975,99786
12314,90084.45504450746,1671368404.202,520,166975,99786
12315,90084.4619878775,1671368404.202,521,167034,99740
12315,90084.46893124754,1671368404.202,521,167034,99740
12316,90084.47587461758,1671368404.202,520,167000,99766
12316,90084.48281798762,1671368404.202,520,167000,99766
12317,90084.48976135766,1671368404.202,520,166965,99748
12317,90084.4967047277,1671368404.202,520,166965,99748
12318,90084.50364809774,1671368404.295,522,166971,99776
12318,90084.51059146778,1671368404.295,522,166971,99776
12319,90084.51753483783,1671368404.295,522,167029,99776
12319,90084.52447820787,1671368404.295,522,167029,99776
12320,90084.54536601105,1671368404.295,521,167031,99777
12320,90084.55261735959,1671368404.295,521,167031,99777
12321,90084.55986870812,1671368404.295,523,167044,99794
12321,90084.56712005666,1671368404.295,523,167044,99794
12322,90084.5743714052,1671368404.295,521,167058,99789
12322,90084.58162275373,1671368404.295,521,167058,99789
12323,90084.58887410226,1671368404.295,522,167110,99796
12323,90084.5961254508,1671368404.295,522,167110,99796
12324,90084.60337679934,1671368404.399,520,167142,99804
12324,90084.61062814787,1671368404.399,520,167142,99804
12325,90084.6178794964,1671368404.399,521,167125,99830
12325,90084.62513084494,1671368404.399,521,167125,99830
12326,90084.63238219348,1671368404.399,521,167161,99850
12326,90084.63963354201,1671368404.399,521,167161,99850
12327,90084.64688489055,1671368404.399,522,167124,99853
12327,90084.65413623909,1671368404.399,522,167124,99853
12328,90084.66138758762,1671368404.399,522,167164,99887
12328,90084.66863893616,1671368404.399,522,167164,99887
12329,90084.67589028469,1671368404.399,522,167200,99877
12329,90084.68314163323,1671368404.399,522,167200,99877
12330,90084.71284085336,1671368404.504,521,167255,99895
12330,90084.72097419135,1671368404.504,521,167255,99895
12331,90084.72910752935,1671368404.504,522,167220,99900
12331,90084.73724086734,1671368404.504,522,167220,99900
12332,90084.74537420533,1671368404.504,522,167196,99903
12332,90084.75350754333,1671368404.504,522,167196,99903
12333,90084.76164088132,1671368404.504,523,167151,99910
12333,90084.76977421931,1671368404.504,523,167151,99910
12334,90084.7779075573,1671368404.504,523,167152,99901
12334,90084.7860408953,1671368404.504,523,167152,99901
12335,90084.79417423329,1671368404.504,523,167125,99878
12335,90084.80230757128,1671368404.504,523,167125,99878
12336,90084.81044090928,1671368404.577,523,167011,99868
12336,90084.81857424727,1671368404.577,523,167011,99868
12337,90084.82670758526,1671368404.577,522,167004,99874
12337,90084.83484092326,1671368404.577,522,167004,99874
12338,90084.84297426125,1671368404.577,522,166899,99832
12338,90084.85110759924,1671368404.577,522,166899,99832
12339,90084.85924093724,1671368404.577,521,166878,99820
12339,90084.86737427523,1671368404.577,521,166878,99820
12340,90084.86358537318,1671368404.577,520,166872,99812
12340,90084.86940757194,1671368404.577,520,166872,99812
12341,90084.8752297707,1671368404.577,521,166776,99790
12341,90084.88105196945,1671368404.577,521,166776,99790
12342,90084.88687416821,1671368404.682,522,166721,99769
12342,90084.89269636697,1671368404.682,522,166721,99769
12343,90084.89851856572,1671368404.682,523,166787,99762
12343,90084.90434076448,1671368404.682,523,166787,99762
12344,90084.91016296324,1671368404.682,522,166751,99754
12344,90084.91598516199,1671368404.682,522,166751,99754
12345,90084.92180736075,1671368404.682,522,166781,99750
12345,90084.9276295595,1671368404.682,522,166781,99750
12346,90084.93345175826,1671368404.682,522,166689,99721
12346,90084.93927395702,1671368404.682,522,166689,99721
12347,90084.94509615577,1671368404.682,521,166788,99719
12347,90084.95091835453,1671368404.682,521,166788,99719
12348,90084.95674055329,1671368404.773,521,166730,99701
12348,90084.96256275204,1671368404.773,521,166730,99701
12349,90084.9683849508,1671368404.773,520,166731,99688
12349,90084.97420714956,1671368404.773,520,166731,99688
12350,90085.02512838358,1671368404.773,523,166722,99705
12350,90085.03256402584,1671368404.773,523,166722,99705
12351,90085.0399996681,1671368404.773,522,166666,99661
12351,90085.04743531035,1671368404.773,522,166666,99661
12352,90085.0548709526,1671368404.773,522,166668,99687
12352,90085.06230659486,1671368404.773,522,166668,99687
12353,90085.06974223712,1671368404.773,521,166687,99659
12353,90085.07717787937,1671368404.773,521,166687,99659
12354,90085.08461352163,1671368404.857,521,166677,99635
12354,90085.09204916388,1671368404.857,521,166677,99635
12355,90085.09948480614,1671368404.857,521,166655,99613
12355,90085.1069204484,1671368404.857,521,166655,99613
12356,90085.11435609065,1671368404.857,521,166592,99616
12356,90085.1217917329,1671368404.857,521,166592,99616
12357,90085.12922737516,1671368404.857,520,166644,99581
12357,90085.13666301742,1671368404.857,520,166644,99581
12358,90085.14409865967,1671368404.857,523,166624,99600
12358,90085.15153430193,1671368404.857,523,166624,99600
12359,90085.15896994418,1671368404.857,522,166647,99611
12359,90085.16640558644,1671368404.857,522,166647,99611
12360,90085.16848731127,1671368404.954,523,166612,99584
12360,90085.17504639088,1671368404.954,523,166612,99584
12361,90085.1816054705,1671368404.954,521,166588,99582
12361,90085.18816455011,1671368404.954,521,166588,99582
12362,90085.19472362973,1671368404.954,520,166611,99579
12362,90085.20128270934,1671368404.954,520,166611,99579
12363,90085.20784178896,1671368404.954,521,166637,99581
12363,90085.21440086857,1671368404.954,521,166637,99581
12364,90085.22095994819,1671368404.954,522,166623,99588
12364,90085.2275190278,1671368404.954,522,166623,99588
12365,90085.23407810742,1671368404.954,520,166720,99571
12365,90085.24063718703,1671368404.954,520,166720,99571
12366,90085.24719626665,1671368405.047,523,166743,99592
12366,90085.25375534626,1671368405.047,523,166743,99592
12367,90085.26031442588,1671368405.047,522,166638,99609
12367,90085.26687350549,1671368405.047,522,166638,99609
12368,90085.2734325851,1671368405.047,521,166631,99605
12368,90085.27999166472,1671368405.047,521,166631,99605
12369,90085.28655074433,1671368405.047,520,166763,99655
12369,90085.29310982395,1671368405.047,520,166763,99655
12370,90085.32823406409,1671368405.047,520,166704,99639
12370,90085.3355208729,1671368405.047,520,166704,99639
12371,90085.34280768172,1671368405.047,521,166760,99714
12371,90085.35009449054,1671368405.047,521,166760,99714
12372,90085.35738129936,1671368405.151,521,166753,99751
12372,90085.36466810817,1671368405.151,521,166753,99751
12373,90085.37195491699,1671368405.151,522,166721,99783
12373,90085.37924172581,1671368405.151,522,166721,99783
12374,90085.38652853463,1671368405.151,523,166841,99827
12374,90085.39381534344,1671368405.151,523,166841,99827
12375,90085.40110215226,1671368405.151,521,166813,99856
12375,90085.40838896108,1671368405.151,521,166813,99856
12376,90085.4156757699,1671368405.151,521,166831,99879
12376,90085.42296257871,1671368405.151,521,166831,99879
12377,90085.43024938753,1671368405.151,520,166805,99877
12377,90085.43753619635,1671368405.151,520,166805,99877
12378,90085.44482300516,1671368405.237,520,166864,99919
12378,90085.45210981398,1671368405.237,520,166864,99919
12379,90085.4593966228,1671368405.237,521,166910,99918
12379,90085.46668343162,1671368405.237,521,166910,99918
12380,90085.49200458328,1671368405.237,522,166915,99953
12380,90085.49914406621,1671368405.237,522,166915,99953
12381,90085.50628354914,1671368405.237,523,166873,99979
12381,90085.51342303207,1671368405.237,523,166873,99979
12382,90085.520562515,1671368405.237,522,166837,99975
12382,90085.52770199793,1671368405.237,522,166837,99975
12383,90085.53484148085,1671368405.237,523,166695,99975
12383,90085.54198096378,1671368405.237,523,166695,99975
12384,90085.54912044671,1671368405.336,523,166625,99957
12384,90085.55625992964,1671368405.336,523,166625,99957
12385,90085.56339941257,1671368405.336,522,166655,99974
12385,90085.5705388955,1671368405.336,522,166655,99974
12386,90085.57767837842,1671368405.336,521,166585,99986
12386,90085.58481786135,1671368405.336,521,166585,99986
12387,90085.59195734428,1671368405.336,523,166560,99970
12387,90085.59909682721,1671368405.336,523,166560,99970
12388,90085.60623631014,1671368405.336,522,166576,99974
12388,90085.61337579307,1671368405.336,522,166576,99974
12389,90085.620515276,1671368405.336,523,166455,99966
12389,90085.62765475892,1671368405.336,523,166455,99966
12390,90085.64925954636,1671368405.421,522,166549,99988
12390,90085.65700864233,1671368405.421,522,166549,99988
12391,90085.6647577383,1671368405.421,524,166473,99986
12391,90085.67250683426,1671368405.421,524,166473,99986
12392,90085.68025593023,1671368405.421,523,166463,99992
12392,90085.6880050262,1671368405.421,523,166463,99992
12393,90085.69575412216,1671368405.421,522,166418,100020
12393,90085.70350321813,1671368405.421,522,166418,100020
12394,90085.7112523141,1671368405.421,522,166421,99994
12394,90085.71900141006,1671368405.421,522,166421,99994
12395,90085.72675050603,1671368405.421,522,166400,100031
12395,90085.734499602,1671368405.421,522,166400,100031
12396,90085.74224869796,1671368405.524,522,166301,100054
12396,90085.74999779393,1671368405.524,522,166301,100054
12397,90085.7577468899,1671368405.524,522,166375,100058
12397,90085.76549598586,1671368405.524,522,166375,100058
12398,90085.77324508183,1671368405.524,524,166359,100073
12398,90085.7809941778,1671368405.524,524,166359,100073
12399,90085.78874327376,1671368405.524,522,166404,100072
12399,90085.79649236973,1671368405.524,522,166404,100072
12400,90085.80344009433,1671368405.524,522,166404,100107
12400,90085.81141572198,1671368405.524,522,166404,100107
12401,90085.81939134964,1671368405.524,523,166418,100112
12401,90085.82736697729,1671368405.524,523,166418,100112
12402,90085.83534260494,1671368405.613,523,166325,100139
12402,90085.8433182326,1671368405.613,523,166325,100139
12403,90085.85129386025,1671368405.613,523,166382,100135
12403,90085.8592694879,1671368405.613,523,166382,100135
12404,90085.86724511556,1671368405.613,523,166369,100146
12404,90085.87522074321,1671368405.613,523,166369,100146
12405,90085.88319637087,1671368405.613,523,166338,100181
12405,90085.89117199852,1671368405.613,523,166338,100181
12406,90085.89914762617,1671368405.613,523,166371,100169
12406,90085.90712325383,1671368405.613,523,166371,100169
12407,90085.91509888148,1671368405.613,524,166300,100207
12407,90085.92307450913,1671368405.613,524,166300,100207
12408,90085.93105013679,1671368405.703,523,166382,100187
12408,90085.93902576444,1671368405.703,523,166382,100187
12409,90085.9470013921,1671368405.703,522,166407,100201
12409,90085.95497701975,1671368405.703,522,166407,100201
12410,90085.9553733751,1671368405.703,523,166324,100204
12410,90085.9623874365,1671368405.703,523,166324,100204
12411,90085.96940149792,1671368405.703,525,166383,100222
12411,90085.97641555933,1671368405.703,525,166383,100222
12412,90085.98342962074,1671368405.703,524,166438,100222
12412,90085.99044368215,1671368405.703,524,166438,100222
12413,90085.99745774356,1671368405.703,524,166429,100217
12413,90086.00447180498,1671368405.703,524,166429,100217
12414,90086.01148586639,1671368405.792,523,166403,100225
12414,90086.0184999278,1671368405.792,523,166403,100225
12415,90086.02551398921,1671368405.792,523,166381,100210
12415,90086.03252805062,1671368405.792,523,166381,100210
12416,90086.03954211203,1671368405.792,523,166422,100221
12416,90086.04655617345,1671368405.792,523,166422,100221
12417,90086.05357023486,1671368405.792,523,166450,100239
12417,90086.06058429627,1671368405.792,523,166450,100239
12418,90086.06759835768,1671368405.792,521,166481,100225
12418,90086.07461241909,1671368405.792,521,166481,100225
12419,90086.0816264805,1671368405.792,524,166499,100248
12419,90086.08864054192,1671368405.792,524,166499,100248
12420,90086.10414837033,1671368405.897,526,166588,100208
12420,90086.11108083959,1671368405.897,526,166588,100208
12421,90086.11801330885,1671368405.897,524,166547,100246
12421,90086.12494577811,1671368405.897,524,166547,100246
12422,90086.13187824737,1671368405.897,523,166478,100271
12422,90086.13881071663,1671368405.897,523,166478,100271
12423,90086.14574318589,1671368405.897,524,166588,100243
12423,90086.15267565515,1671368405.897,524,166588,100243
12424,90086.1596081244,1671368405.897,523,166527,100265
12424,90086.16654059367,1671368405.897,523,166527,100265
12425,90086.17347306293,1671368405.897,522,166536,100241
12425,90086.18040553218,1671368405.897,522,166536,100241
12426,90086.18733800144,1671368405.988,524,166623,100272
12426,90086.1942704707,1671368405.988,524,166623,100272
12427,90086.20120293996,1671368405.988,524,166594,100257
12427,90086.20813540922,1671368405.988,524,166594,100257
12428,90086.21506787848,1671368405.988,524,166594,100249
12428,90086.22200034774,1671368405.988,524,166594,100249
12429,90086.228932817,1671368405.988,522,166675,100267
12429,90086.23586528626,1671368405.988,522,166675,100267
12430,90086.27005692813,1671368405.988,525,166699,100261
12430,90086.27723899248,1671368405.988,525,166699,100261
12431,90086.28442105683,1671368405.988,523,166666,100280
12431,90086.29160312118,1671368405.988,523,166666,100280
12432,90086.29878518553,1671368406.073,523,166589,100266
12432,90086.30596724988,1671368406.073,523,166589,100266
12433,90086.31314931423,1671368406.073,523,166589,100242
12433,90086.32033137858,1671368406.073,523,166589,100242
12434,90086.32751344293,1671368406.073,523,166494,100212
12434,90086.33469550728,1671368406.073,523,166494,100212
12435,90086.34187757163,1671368406.073,524,166368,100222
12435,90086.34905963598,1671368406.073,524,166368,100222
12436,90086.35624170033,1671368406.073,524,166380,100206
12436,90086.36342376468,1671368406.073,524,166380,100206
12437,90086.37060582903,1671368406.073,523,166381,100210
12437,90086.37778789338,1671368406.073,523,166381,100210
12438,90086.38496995773,1671368406.173,524,166354,100205
12438,90086.39215202208,1671368406.173,524,166354,100205
12439,90086.39933408643,1671368406.173,524,166314,100179
12439,90086.40651615078,1671368406.173,524,166314,100179
12440,90086.41876189619,1671368406.173,522,166227,100181
12440,90086.42622383185,1671368406.173,522,166227,100181
12441,90086.43368576751,1671368406.173,524,166146,100154
12441,90086.44114770317,1671368406.173,524,166146,100154
12442,90086.44860963883,1671368406.173,523,166216,100150
12442,90086.45607157449,1671368406.173,523,166216,100150
12443,90086.46353351015,1671368406.173,524,166173,100129
12443,90086.47099544581,1671368406.173,524,166173,100129
12444,90086.47845738147,1671368406.269,524,166179,100072
12444,90086.48591931713,1671368406.269,524,166179,100072
12445,90086.49338125279,1671368406.269,523,166088,100038
12445,90086.50084318845,1671368406.269,523,166088,100038
12446,90086.50830512411,1671368406.269,523,166058,99978
12446,90086.51576705977,1671368406.269,523,166058,99978
12447,90086.52322899543,1671368406.269,523,166078,99952
12447,90086.53069093109,1671368406.269,523,166078,99952
12448,90086.53815286675,1671368406.269,521,166033,99950
12448,90086.54561480241,1671368406.269,521,166033,99950
12449,90086.55307673807,1671368406.269,524,166055,99909
12449,90086.56053867373,1671368406.269,524,166055,99909
12450,90086.58214576474,1671368406.367,524,165968,99888
12450,90086.58968236097,1671368406.367,524,165968,99888
12451,90086.59721895719,1671368406.367,524,166030,99876
12451,90086.60475555342,1671368406.367,524,166030,99876
12452,90086.61229214964,1671368406.367,524,165935,99864
12452,90086.61982874587,1671368406.367,524,165935,99864
12453,90086.6273653421,1671368406.367,523,165863,99845
12453,90086.63490193832,1671368406.367,523,165863,99845
12454,90086.64243853455,1671368406.367,522,165954,99839
12454,90086.64997513077,1671368406.367,522,165954,99839
12455,90086.657511727,1671368406.367,524,165937,99836
12455,90086.66504832322,1671368406.367,524,165937,99836
12456,90086.67258491945,1671368406.453,522,165869,99808
12456,90086.68012151567,1671368406.453,522,165869,99808
12457,90086.6876581119,1671368406.453,521,165898,99814
12457,90086.69519470813,1671368406.453,521,165898,99814
12458,90086.70273130435,1671368406.453,523,165846,99778
12458,90086.71026790058,1671368406.453,523,165846,99778
12459,90086.7178044968,1671368406.453,523,165850,99763
12459,90086.72534109303,1671368406.453,523,165850,99763
12460,90086.73584070495,1671368406.453,524,165854,99759
12460,90086.74261003274,1671368406.453,524,165854,99759
12461,90086.74937936054,1671368406.453,524,165857,99748
12461,90086.75614868834,1671368406.453,524,165857,99748
12462,90086.76291801613,1671368406.545,522,165818,99752
12462,90086.76968734393,1671368406.545,522,165818,99752
12463,90086.77645667172,1671368406.545,523,165800,99743
12463,90086.78322599952,1671368406.545,523,165800,99743
12464,90086.78999532732,1671368406.545,522,165859,99699
12464,90086.79676465511,1671368406.545,522,165859,99699
12465,90086.80353398291,1671368406.545,522,165933,99697
12465,90086.8103033107,1671368406.545,522,165933,99697
12466,90086.8170726385,1671368406.545,523,165897,99696
12466,90086.8238419663,1671368406.545,523,165897,99696
12467,90086.83061129409,1671368406.545,524,165897,99704
12467,90086.83738062189,1671368406.545,524,165897,99704
12468,90086.84414994968,1671368406.647,523,165892,99702
12468,90086.85091927748,1671368406.647,523,165892,99702
12469,90086.85768860528,1671368406.647,524,165966,99707
12469,90086.86445793307,1671368406.647,524,165966,99707
12470,90086.89249268835,1671368406.647,522,165956,99712
12470,90086.90025133271,1671368406.647,522,165956,99712
12471,90086.90800997708,1671368406.647,522,166029,99730
12471,90086.91576862145,1671368406.647,522,166029,99730
12472,90086.92352726581,1671368406.647,521,166011,99721
12472,90086.93128591018,1671368406.647,521,166011,99721
12473,90086.93904455454,1671368406.647,523,166010,99736
12473,90086.94680319891,1671368406.647,523,166010,99736
12474,90086.95456184327,1671368406.74,523,166003,99696
12474,90086.96232048764,1671368406.74,523,166003,99696
12475,90086.970079132,1671368406.74,524,166091,99708
12475,90086.97783777637,1671368406.74,524,166091,99708
12476,90086.98559642074,1671368406.74,523,166011,99704
12476,90086.9933550651,1671368406.74,523,166011,99704
12477,90087.00111370947,1671368406.74,523,166068,99706
12477,90087.00887235384,1671368406.74,523,166068,99706
12478,90087.0166309982,1671368406.74,522,166074,99702
12478,90087.02438964257,1671368406.74,522,166074,99702
12479,90087.03214828693,1671368406.74,523,166101,99728
12479,90087.0399069313,1671368406.74,523,166101,99728
12480,90087.05197040146,1671368406.825,522,166163,99725
12480,90087.05916933491,1671368406.825,522,166163,99725
12481,90087.06636826837,1671368406.825,523,166133,99677
12481,90087.07356720182,1671368406.825,523,166133,99677
12482,90087.08076613527,1671368406.825,522,166020,99616
12482,90087.08796506873,1671368406.825,522,166020,99616
12483,90087.09516400218,1671368406.825,524,165960,99547
12483,90087.10236293564,1671368406.825,524,165960,99547
12484,90087.10956186909,1671368406.825,523,165853,99509
12484,90087.11676080254,1671368406.825,523,165853,99509
12485,90087.123959736,1671368406.825,523,165749,99509
12485,90087.13115866945,1671368406.825,523,165749,99509
12486,90087.1383576029,1671368406.927,523,165831,99488
12486,90087.14555653636,1671368406.927,523,165831,99488
12487,90087.15275546981,1671368406.927,521,165720,99484
12487,90087.15995440327,1671368406.927,521,165720,99484
12488,90087.16715333672,1671368406.927,523,165696,99490
12488,90087.17435227017,1671368406.927,523,165696,99490
12489,90087.18155120363,1671368406.927,523,165666,99462
12489,90087.18875013708,1671368406.927,523,165666,99462
12490,90087.20604265781,1671368406.927,524,165611,99469
12490,90087.21390361885,1671368406.927,524,165611,99469
12491,90087.22176457988,1671368406.927,523,165661,99436
12491,90087.22962554092,1671368406.927,523,165661,99436
12492,90087.23748650195,1671368407.022,524,165656,99448
12492,90087.24534746299,1671368407.022,524,165656,99448
12493,90087.25320842402,1671368407.022,522,165551,99400
12493,90087.26106938506,1671368407.022,522,165551,99400
12494,90087.2689303461,1671368407.022,522,165478,99392
12494,90087.27679130713,1671368407.022,522,165478,99392
12495,90087.28465226816,1671368407.022,522,165545,99361
12495,90087.2925132292,1671368407.022,522,165545,99361
12496,90087.30037419024,1671368407.022,522,165495,99351
12496,90087.30823515127,1671368407.022,522,165495,99351
12497,90087.3160961123,1671368407.022,523,165442,99342
12497,90087.32395707334,1671368407.022,523,165442,99342
12498,90087.33181803438,1671368407.11,524,165470,99339
12498,90087.33967899541,1671368407.11,524,165470,99339
12499,90087.34753995645,1671368407.11,522,165458,99315
12499,90087.35540091748,1671368407.11,522,165458,99315
12500,90087.3637693434,1671368407.11,522,165520,99336
12500,90087.3707756041,1671368407.11,522,165520,99336
12501,90087.3777818648,1671368407.11,520,165525,99343
12501,90087.38478812549,1671368407.11,520,165525,99343
12502,90087.39179438619,1671368407.11,520,165541,99340
12502,90087.39880064689,1671368407.11,520,165541,99340
12503,90087.40580690758,1671368407.11,521,165505,99341
12503,90087.41281316828,1671368407.11,521,165505,99341
12504,90087.41981942898,1671368407.201,522,165488,99343
12504,90087.42682568968,1671368407.201,522,165488,99343
12505,90087.43383195037,1671368407.201,522,165434,99334
12505,90087.44083821107,1671368407.201,522,165434,99334
12506,90087.44784447177,1671368407.201,523,165479,99359
12506,90087.45485073247,1671368407.201,523,165479,99359
12507,90087.46185699316,1671368407.201,524,165474,99355
12507,90087.46886325386,1671368407.201,524,165474,99355
12508,90087.47586951456,1671368407.201,521,165428,99358
12508,90087.48287577525,1671368407.201,521,165428,99358
12509,90087.48988203595,1671368407.201,523,165514,99389
12509,90087.49688829665,1671368407.201,523,165514,99389
12510,90087.51362709295,1671368407.296,523,165514,99411
12510,90087.52078829103,1671368407.296,523,165514,99411
12511,90087.52794948911,1671368407.296,523,165505,99425
12511,90087.5351106872,1671368407.296,523,165505,99425
12512,90087.54227188528,1671368407.296,523,165521,99440
12512,90087.54943308336,1671368407.296,523,165521,99440
12513,90087.55659428144,1671368407.296,523,165555,99464
12513,90087.56375547952,1671368407.296,523,165555,99464
12514,90087.5709166776,1671368407.296,523,165514,99485
12514,90087.57807787569,1671368407.296,523,165514,99485
12515,90087.58523907377,1671368407.296,524,165628,99563
12515,90087.59240027185,1671368407.296,524,165628,99563
12516,90087.59956146993,1671368407.393,522,165705,99600
12516,90087.60672266802,1671368407.393,522,165705,99600
12517,90087.6138838661,1671368407.393,523,165691,99623
12517,90087.62104506418,1671368407.393,523,165691,99623
12518,90087.62820626226,1671368407.393,522,165706,99609
12518,90087.63536746035,1671368407.393,522,165706,99609
12519,90087.64252865843,1671368407.393,522,165793,99615
12519,90087.64968985651,1671368407.393,522,165793,99615
12520,90087.67391149011,1671368407.393,523,165687,99581
12520,90087.68147591292,1671368407.393,523,165687,99581
12521,90087.68904033572,1671368407.393,523,165758,99553
12521,90087.69660475853,1671368407.393,523,165758,99553
12522,90087.70416918134,1671368407.488,522,165778,99589
12522,90087.71173360414,1671368407.488,522,165778,99589
12523,90087.71929802695,1671368407.488,523,165774,99579
12523,90087.72686244975,1671368407.488,523,165774,99579
12524,90087.73442687256,1671368407.488,523,165777,99627
12524,90087.74199129536,1671368407.488,523,165777,99627
12525,90087.74955571817,1671368407.488,524,165781,99642
12525,90087.75712014097,1671368407.488,524,165781,99642
12526,90087.76468456378,1671368407.488,521,165951,99647
12526,90087.77224898658,1671368407.488,521,165951,99647
12527,90087.77981340939,1671368407.488,523,165855,99690
12527,90087.7873778322,1671368407.488,523,165855,99690
12528,90087.794942255,1671368407.577,523,165977,99700
12528,90087.8025066778,1671368407.577,523,165977,99700
12529,90087.81007110061,1671368407.577,522,165913,99703
12529,90087.81763552342,1671368407.577,522,165913,99703
12530,90087.83039118144,1671368407.577,522,165912,99691
12530,90087.83748702606,1671368407.577,522,165912,99691
12531,90087.84458287068,1671368407.577,523,165969,99743
12531,90087.85167871529,1671368407.577,523,165969,99743
12532,90087.8587745599,1671368407.577,522,166071,99738
12532,90087.86587040452,1671368407.577,522,166071,99738
12533,90087.87296624914,1671368407.577,523,166008,99732
12533,90087.88006209375,1671368407.577,523,166008,99732
12534,90087.88715793837,1671368407.67,522,166041,99739
12534,90087.89425378299,1671368407.67,522,166041,99739
12535,90087.9013496276,1671368407.67,522,166011,99732
12535,90087.90844547222,1671368407.67,522,166011,99732
12536,90087.91554131683,1671368407.67,522,165949,99717
12536,90087.92263716145,1671368407.67,522,165949,99717
12537,90087.92973300607,1671368407.67,522,165825,99681
12537,90087.93682885068,1671368407.67,522,165825,99681
12538,90087.9439246953,1671368407.67,523,165803,99625
12538,90087.95102053991,1671368407.67,523,165803,99625
12539,90087.95811638453,1671368407.67,522,165732,99564
12539,90087.96521222914,1671368407.67,522,165732,99564
12540,90087.98276947052,1671368407.767,520,165631,99507
12540,90087.99002288035,1671368407.767,520,165631,99507
12541,90087.99727629017,1671368407.767,521,165610,99527
12541,90088.0045297,1671368407.767,521,165610,99527
12542,90088.01178310983,1671368407.767,523,165592,99508
12542,90088.01903651966,1671368407.767,523,165592,99508
12543,90088.02628992949,1671368407.767,522,165543,99527
12543,90088.03354333932,1671368407.767,522,165543,99527
12544,90088.04079674915,1671368407.767,523,165596,99512
12544,90088.04805015898,1671368407.767,523,165596,99512
12545,90088.0553035688,1671368407.767,523,165529,99562
12545,90088.06255697864,1671368407.767,523,165529,99562
12546,90088.06981038846,1671368407.862,523,165568,99594
12546,90088.0770637983,1671368407.862,523,165568,99594
12547,90088.08431720812,1671368407.862,522,165581,99611
12547,90088.09157061795,1671368407.862,522,165581,99611
12548,90088.09882402778,1671368407.862,523,165586,99661
12548,90088.10607743761,1671368407.862,523,165586,99661
12549,90088.11333084744,1671368407.862,522,165557,99679
12549,90088.12058425727,1671368407.862,522,165557,99679
12550,90088.14293208724,1671368407.862,520,165598,99699
12550,90088.15041219501,1671368407.862,520,165598,99699
12551,90088.15789230278,1671368407.862,523,165675,99727
12551,90088.16537241056,1671368407.862,523,165675,99727
12552,90088.17285251833,1671368407.948,523,165608,99721
12552,90088.1803326261,1671368407.948,523,165608,99721
12553,90088.18781273387,1671368407.948,521,165563,99711
12553,90088.19529284164,1671368407.948,521,165563,99711
12554,90088.20277294941,1671368407.948,523,165557,99704
12554,90088.21025305719,1671368407.948,523,165557,99704
12555,90088.21773316496,1671368407.948,522,165664,99737
12555,90088.22521327273,1671368407.948,522,165664,99737
12556,90088.2326933805,1671368407.948,522,165594,99728
12556,90088.24017348827,1671368407.948,522,165594,99728
12557,90088.24765359604,1671368407.948,523,165621,99726
12557,90088.25513370382,1671368407.948,523,165621,99726
12558,90088.26261381159,1671368408.045,523,165660,99740
12558,90088.27009391936,1671368408.045,523,165660,99740
12559,90088.27757402713,1671368408.045,523,165714,99705
12559,90088.2850541349,1671368408.045,523,165714,99705
12560,90088.29253291817,1671368408.045,523,165669,99724
12560,90088.29986915854,1671368408.045,523,165669,99724
12561,90088.3072053989,1671368408.045,523,165668,99716
12561,90088.31454163927,1671368408.045,523,165668,99716
12562,90088.32187787963,1671368408.045,523,165625,99687
12562,90088.32921411999,1671368408.045,523,165625,99687
12563,90088.33655036036,1671368408.045,523,165619,99699
12563,90088.34388660072,1671368408.045,523,165619,99699
12564,90088.35122284108,1671368408.138,520,165639,99685
12564,90088.35855908145,1671368408.138,520,165639,99685
12565,90088.36589532181,1671368408.138,523,165616,99680
12565,90088.37323156217,1671368408.138,523,165616,99680
12566,90088.38056780254,1671368408.138,522,165691,99700
12566,90088.3879040429,1671368408.138,522,165691,99700
12567,90088.39524028327,1671368408.138,524,165655,99686
12567,90088.40257652363,1671368408.138,524,165655,99686
12568,90088.409912764,1671368408.138,522,165732,99701
12568,90088.41724900436,1671368408.138,522,165732,99701
12569,90088.42458524472,1671368408.138,524,165758,99705
12569,90088.43192148508,1671368408.138,524,165758,99705
12570,90088.45064762287,1671368408.235,524,165724,99702
12570,90088.45792464366,1671368408.235,524,165724,99702
12571,90088.46520166445,1671368408.235,522,165756,99721
12571,90088.47247868525,1671368408.235,522,165756,99721
12572,90088.47975570604,1671368408.235,522,165735,99709
12572,90088.48703272683,1671368408.235,522,165735,99709
12573,90088.49430974762,1671368408.235,520,165738,99710
12573,90088.50158676841,1671368408.235,520,165738,99710
12574,90088.5088637892,1671368408.235,523,165879,99712
12574,90088.51614081,1671368408.235,523,165879,99712
12575,90088.52341783079,1671368408.235,523,165841,99713
12575,90088.53069485158,1671368408.235,523,165841,99713
12576,90088.53797187237,1671368408.323,524,165801,99684
12576,90088.54524889316,1671368408.323,524,165801,99684
12577,90088.55252591395,1671368408.323,522,165854,99729
12577,90088.55980293475,1671368408.323,522,165854,99729
12578,90088.56707995554,1671368408.323,523,165823,99741
12578,90088.57435697633,1671368408.323,523,165823,99741
12579,90088.58163399712,1671368408.323,520,165856,99709
12579,90088.58891101791,1671368408.323,520,165856,99709
12580,90088.6056141266,1671368408.323,521,165890,99699
12580,90088.61250920728,1671368408.323,521,165890,99699
12581,90088.61940428795,1671368408.323,523,165954,99690
12581,90088.62629936863,1671368408.323,523,165954,99690
12582,90088.6331944493,1671368408.421,523,165882,99685
12582,90088.64008952997,1671368408.421,523,165882,99685
12583,90088.64698461065,1671368408.421,523,165977,99684
12583,90088.65387969132,1671368408.421,523,165977,99684
12584,90088.660774772,1671368408.421,523,165908,99680
12584,90088.66766985267,1671368408.421,523,165908,99680
12585,90088.67456493335,1671368408.421,522,165984,99691
12585,90088.68146001402,1671368408.421,522,165984,99691
12586,90088.6883550947,1671368408.421,522,165942,99686
12586,90088.69525017537,1671368408.421,522,165942,99686
12587,90088.70214525604,1671368408.421,523,166029,99706
12587,90088.70904033672,1671368408.421,523,166029,99706
12588,90088.7159354174,1671368408.531,521,166048,99707
12588,90088.72283049807,1671368408.531,521,166048,99707
12589,90088.72972557874,1671368408.531,523,166045,99721
12589,90088.73662065942,1671368408.531,523,166045,99721
12590,90088.7710238619,1671368408.531,522,166046,99698
12590,90088.7793215437,1671368408.531,522,166046,99698
12591,90088.78761922549,1671368408.531,524,165980,99726
12591,90088.79591690729,1671368408.531,524,165980,99726
12592,90088.80421458908,1671368408.531,523,165958,99719
12592,90088.81251227087,1671368408.531,523,165958,99719
12593,90088.82080995267,1671368408.531,523,165927,99701
12593,90088.82910763446,1671368408.531,523,165927,99701
12594,90088.83740531626,1671368408.612,522,165837,99697
12594,90088.84570299805,1671368408.612,522,165837,99697
12595,90088.85400067984,1671368408.612,523,165839,99686
12595,90088.86229836164,1671368408.612,523,165839,99686
12596,90088.87059604343,1671368408.612,523,165715,99670
12596,90088.87889372522,1671368408.612,523,165715,99670
12597,90088.88719140702,1671368408.612,522,165763,99674
12597,90088.89548908881,1671368408.612,522,165763,99674
12598,90088.9037867706,1671368408.612,524,165715,99671
12598,90088.9120844524,1671368408.612,524,165715,99671
12599,90088.9203821342,1671368408.612,522,165700,99664
12599,90088.92867981599,1671368408.612,522,165700,99664
12600,90088.92278447273,1671368408.706,523,165652,99680
12600,90088.92913402758,1671368408.706,523,165652,99680
12601,90088.93548358243,1671368408.706,522,165610,99666
12601,90088.94183313729,1671368408.706,522,165610,99666
12602,90088.94818269214,1671368408.706,523,165623,99660
12602,90088.954532247,1671368408.706,523,165623,99660
12603,90088.96088180185,1671368408.706,521,165582,99650
12603,90088.9672313567,1671368408.706,521,165582,99650
12604,90088.97358091155,1671368408.706,522,165644,99660
12604,90088.9799304664,1671368408.706,522,165644,99660
12605,90088.98628002126,1671368408.706,522,165601,99664
12605,90088.99262957611,1671368408.706,522,165601,99664
12606,90088.99897913096,1671368408.802,524,165640,99653
12606,90089.00532868582,1671368408.802,524,165640,99653
12607,90089.01167824067,1671368408.802,523,165621,99654
12607,90089.01802779552,1671368408.802,523,165621,99654
12608,90089.02437735038,1671368408.802,523,165653,99680
12608,90089.03072690523,1671368408.802,523,165653,99680
12609,90089.03707646008,1671368408.802,522,165548,99672
12609,90089.04342601493,1671368408.802,522,165548,99672
12610,90089.08222216867,1671368408.802,523,165643,99670
12610,90089.0897107572,1671368408.802,523,165643,99670
12611,90089.09719934572,1671368408.802,523,165558,99658
12611,90089.10468793425,1671368408.802,523,165558,99658
12612,90089.11217652277,1671368408.897,523,165561,99650
12612,90089.1196651113,1671368408.897,523,165561,99650
12613,90089.12715369982,1671368408.897,522,165529,99645
12613,90089.13464228835,1671368408.897,522,165529,99645
12614,90089.14213087688,1671368408.897,526,165553,99598
12614,90089.1496194654,1671368408.897,526,165553,99598
12615,90089.15710805393,1671368408.897,523,165577,99564
12615,90089.16459664245,1671368408.897,523,165577,99564
12616,90089.17208523098,1671368408.897,524,165525,99526
12616,90089.1795738195,1671368408.897,524,165525,99526
12617,90089.18706240803,1671368408.897,523,165456,99502
12617,90089.19455099656,1671368408.897,523,165456,99502
12618,90089.20203958509,1671368409.001,522,165499,99478
12618,90089.20952817361,1671368409.001,522,165499,99478
12619,90089.21701676214,1671368409.001,523,165497,99474
12619,90089.22450535066,1671368409.001,523,165497,99474
12620,90089.24437080407,1671368409.001,523,165449,99475
12620,90089.25227463196,1671368409.001,523,165449,99475
12621,90089.26017845985,1671368409.001,525,165515,99466
12621,90089.26808228774,1671368409.001,525,165515,99466
12622,90089.27598611564,1671368409.001,524,165526,99476
12622,90089.28388994353,1671368409.001,524,165526,99476
12623,90089.29179377142,1671368409.001,523,165538,99466
12623,90089.29969759932,1671368409.001,523,165538,99466
12624,90089.30760142721,1671368409.075,523,165542,99456
12624,90089.3155052551,1671368409.075,523,165542,99456
12625,90089.323409083,1671368409.075,523,165567,99476
12625,90089.33131291089,1671368409.075,523,165567,99476
12626,90089.33921673878,1671368409.075,524,165571,99462
12626,90089.34712056667,1671368409.075,524,165571,99462
12627,90089.35502439456,1671368409.075,523,165649,99461
12627,90089.36292822246,1671368409.075,523,165649,99461
12628,90089.37083205035,1671368409.075,524,165627,99449
12628,90089.37873587824,1671368409.075,524,165627,99449
12629,90089.38663970614,1671368409.075,525,165610,99455
12629,90089.39454353403,1671368409.075,525,165610,99455
12630,90089.38570795505,1671368409.169,526,165658,99460
12630,90089.39156917826,1671368409.169,526,165658,99460
12631,90089.39743040147,1671368409.169,525,165726,99446
12631,90089.40329162468,1671368409.169,525,165726,99446
12632,90089.40915284789,1671368409.169,524,165734,99497
12632,90089.4150140711,1671368409.169,524,165734,99497
12633,90089.42087529431,1671368409.169,523,165630,99491
12633,90089.42673651752,1671368409.169,523,165630,99491
12634,90089.43259774073,1671368409.169,523,165735,99491
12634,90089.43845896394,1671368409.169,523,165735,99491
12635,90089.44432018715,1671368409.169,524,165696,99505
12635,90089.45018141036,1671368409.169,524,165696,99505
12636,90089.45604263357,1671368409.268,524,165754,99490
12636,90089.46190385678,1671368409.268,524,165754,99490
12637,90089.46776507999,1671368409.268,525,165720,99521
12637,90089.4736263032,1671368409.268,525,165720,99521
12638,90089.4794875264,1671368409.268,525,165772,99543
12638,90089.48534874961,1671368409.268,525,165772,99543
12639,90089.49120997282,1671368409.268,524,165831,99520
12639,90089.49707119603,1671368409.268,524,165831,99520
12640,90089.5475356595,1671368409.268,525,165790,99507
12640,90089.55521031132,1671368409.268,525,165790,99507
12641,90089.56288496313,1671368409.268,522,165832,99510
12641,90089.57055961495,1671368409.268,522,165832,99510
12642,90089.57823426677,1671368409.363,523,165843,99486
12642,90089.58590891858,1671368409.363,523,165843,99486
12643,90089.5935835704,1671368409.363,524,165906,99462
12643,90089.60125822222,1671368409.363,524,165906,99462
12644,90089.60893287403,1671368409.363,525,165907,99411
12644,90089.61660752585,1671368409.363,525,165907,99411
12645,90089.62428217767,1671368409.363,525,165863,99374
12645,90089.63195682949,1671368409.363,525,165863,99374
12646,90089.6396314813,1671368409.363,526,165828,99358
12646,90089.64730613312,1671368409.363,526,165828,99358
12647,90089.65498078494,1671368409.363,526,165826,99327
12647,90089.66265543675,1671368409.363,526,165826,99327
12648,90089.67033008857,1671368409.455,524,165972,99348
12648,90089.67800474039,1671368409.455,524,165972,99348
12649,90089.6856793922,1671368409.455,525,165888,99385
12649,90089.69335404402,1671368409.455,525,165888,99385
12650,90089.70561306542,1671368409.455,524,165960,99362
12650,90089.71290000562,1671368409.455,524,165960,99362
12651,90089.72018694581,1671368409.455,526,165967,99389
12651,90089.727473886,1671368409.455,526,165967,99389
12652,90089.73476082619,1671368409.455,526,165856,99356
12652,90089.74204776638,1671368409.455,526,165856,99356
12653,90089.74933470658,1671368409.455,526,165841,99246
12653,90089.75662164677,1671368409.455,526,165841,99246
12654,90089.76390858696,1671368409.555,525,165676,99163
12654,90089.77119552715,1671368409.555,525,165676,99163
12655,90089.77848246734,1671368409.555,524,165662,99126
12655,90089.78576940754,1671368409.555,524,165662,99126
12656,90089.79305634773,1671368409.555,525,165641,99125
12656,90089.80034328792,1671368409.555,525,165641,99125
12657,90089.80763022811,1671368409.555,523,165587,99115
12657,90089.8149171683,1671368409.555,523,165587,99115
12658,90089.8222041085,1671368409.555,523,165554,99156
12658,90089.82949104869,1671368409.555,523,165554,99156
12659,90089.83677798888,1671368409.555,525,165541,99177
12659,90089.84406492907,1671368409.555,525,165541,99177
12660,90089.86835734479,1671368409.649,526,165629,99216
12660,90089.87618940837,1671368409.649,526,165629,99216
12661,90089.88402147195,1671368409.649,526,165620,99252
12661,90089.89185353553,1671368409.649,526,165620,99252
12662,90089.89968559911,1671368409.649,525,165555,99251
12662,90089.9075176627,1671368409.649,525,165555,99251
12663,90089.91534972627,1671368409.649,524,165502,99243
12663,90089.92318178985,1671368409.649,524,165502,99243
12664,90089.93101385343,1671368409.649,525,165577,99301
12664,90089.93884591701,1671368409.649,525,165577,99301
12665,90089.9466779806,1671368409.649,523,165606,99331
12665,90089.95451004418,1671368409.649,523,165606,99331
12666,90089.96234210776,1671368409.744,524,165525,99373
12666,90089.97017417134,1671368409.744,524,165525,99373
12667,90089.97800623492,1671368409.744,526,165586,99370
12667,90089.9858382985,1671368409.744,526,165586,99370
12668,90089.99367036208,1671368409.744,526,165627,99413
12668,90090.00150242566,1671368409.744,526,165627,99413
12669,90090.00933448924,1671368409.744,525,165603,99421
12669,90090.01716655282,1671368409.744,525,165603,99421
12670,90090.02437316587,1671368409.744,526,165651,99412
12670,90090.03178170399,1671368409.744,526,165651,99412
12671,90090.03919024211,1671368409.744,524,165653,99434
12671,90090.04659878023,1671368409.744,524,165653,99434
12672,90090.05400731835,1671368409.828,524,165687,99424
12672,90090.06141585647,1671368409.828,524,165687,99424
12673,90090.06882439459,1671368409.828,524,165589,99428
12673,90090.07623293271,1671368409.828,524,165589,99428
12674,90090.08364147083,1671368409.828,525,165582,99407
12674,90090.09105000895,1671368409.828,525,165582,99407
12675,90090.09845854707,1671368409.828,525,165638,99432
12675,90090.10586708519,1671368409.828,525,165638,99432
12676,90090.11327562331,1671368409.828,525,165637,99426
12676,90090.12068416143,1671368409.828,525,165637,99426
12677,90090.12809269955,1671368409.828,524,165602,99436
12677,90090.13550123767,1671368409.828,524,165602,99436
12678,90090.1429097758,1671368409.919,524,165572,99428
12678,90090.15031831391,1671368409.919,524,165572,99428
12679,90090.15772685203,1671368409.919,522,165589,99419
12679,90090.16513539015,1671368409.919,522,165589,99419
12680,90090.16979727731,1671368409.919,523,165593,99438
12680,90090.17675384227,1671368409.919,523,165593,99438
12681,90090.18371040723,1671368409.919,523,165692,99428
12681,90090.1906669722,1671368409.919,523,165692,99428
12682,90090.19762353715,1671368409.919,525,165635,99431
12682,90090.20458010212,1671368409.919,525,165635,99431
12683,90090.21153666708,1671368409.919,527,165673,99434
12683,90090.21849323204,1671368409.919,527,165673,99434
12684,90090.225449797,1671368410.019,524,165575,99441
12684,90090.23240636196,1671368410.019,524,165575,99441
12685,90090.23936292692,1671368410.019,525,165636,99418
12685,90090.24631949188,1671368410.019,525,165636,99418
12686,90090.25327605684,1671368410.019,525,165660,99418
12686,90090.2602326218,1671368410.019,525,165660,99418
12687,90090.26718918676,1671368410.019,523,165657,99436
12687,90090.27414575173,1671368410.019,523,165657,99436
12688,90090.28110231669,1671368410.019,523,165679,99444
12688,90090.28805888165,1671368410.019,523,165679,99444
12689,90090.29501544661,1671368410.019,526,165663,99430
12689,90090.30197201157,1671368410.019,526,165663,99430
12690,90090.33151683256,1671368410.114,523,165727,99413
12690,90090.33930728737,1671368410.114,523,165727,99413
12691,90090.34709774218,1671368410.114,525,165721,99424
12691,90090.35488819699,1671368410.114,525,165721,99424
12692,90090.3626786518,1671368410.114,524,165771,99394
12692,90090.37046910661,1671368410.114,524,165771,99394
12693,90090.37825956142,1671368410.114,525,165687,99381
12693,90090.38605001623,1671368410.114,525,165687,99381
12694,90090.39384047104,1671368410.114,523,165688,99369
12694,90090.40163092584,1671368410.114,523,165688,99369
12695,90090.40942138065,1671368410.114,524,165722,99396
12695,90090.41721183546,1671368410.114,524,165722,99396
12696,90090.42500229027,1671368410.203,523,165774,99388
12696,90090.43279274508,1671368410.203,523,165774,99388
12697,90090.44058319989,1671368410.203,525,165760,99399
12697,90090.4483736547,1671368410.203,525,165760,99399
12698,90090.4561641095,1671368410.203,524,165774,99417
12698,90090.46395456431,1671368410.203,524,165774,99417
12699,90090.47174501912,1671368410.203,525,165766,99390
12699,90090.47953547393,1671368410.203,525,165766,99390
12700,90090.48503725488,1671368410.203,525,165763,99383
12700,90090.49203816787,1671368410.203,525,165763,99383
12701,90090.49903908085,1671368410.203,524,165812,99384
12701,90090.50603999384,1671368410.203,524,165812,99384
12702,90090.51304090682,1671368410.287,525,165787,99395
12702,90090.52004181981,1671368410.287,525,165787,99395
12703,90090.52704273279,1671368410.287,524,165817,99398
12703,90090.53404364578,1671368410.287,524,165817,99398
12704,90090.54104455876,1671368410.287,524,165859,99425
12704,90090.54804547175,1671368410.287,524,165859,99425
12705,90090.55504638473,1671368410.287,524,165890,99406
12705,90090.56204729772,1671368410.287,524,165890,99406
12706,90090.5690482107,1671368410.287,525,165906,99399
12706,90090.57604912369,1671368410.287,525,165906,99399
12707,90090.58305003667,1671368410.287,526,165870,99392
12707,90090.59005094966,1671368410.287,526,165870,99392
12708,90090.59705186264,1671368410.386,525,165711,99383
12708,90090.60405277563,1671368410.386,525,165711,99383
12709,90090.61105368861,1671368410.386,526,165668,99366
12709,90090.6180546016,1671368410.386,526,165668,99366
12710,90090.63196764232,1671368410.386,523,165620,99337
12710,90090.63937472312,1671368410.386,523,165620,99337
12711,90090.64678180392,1671368410.386,524,165578,99318
12711,90090.65418888473,1671368410.386,524,165578,99318
12712,90090.66159596553,1671368410.386,524,165550,99309
12712,90090.66900304634,1671368410.386,524,165550,99309
12713,90090.67641012714,1671368410.386,524,165496,99319
12713,90090.68381720794,1671368410.386,524,165496,99319
12714,90090.69122428875,1671368410.49,527,165504,99290
12714,90090.69863136955,1671368410.49,527,165504,99290
12715,90090.70603845036,1671368410.49,525,165524,99295
12715,90090.71344553116,1671368410.49,525,165524,99295
12716,90090.72085261196,1671368410.49,525,165533,99305
12716,90090.72825969277,1671368410.49,525,165533,99305
12717,90090.73566677357,1671368410.49,525,165451,99287
12717,90090.74307385438,1671368410.49,525,165451,99287
12718,90090.75048093518,1671368410.49,525,165427,99303
12718,90090.75788801599,1671368410.49,525,165427,99303
12719,90090.76529509679,1671368410.49,525,165452,99276
12719,90090.7727021776,1671368410.49,525,165452,99276
12720,90090.80313977027,1671368410.58,525,165379,99259
12720,90090.81124123695,1671368410.58,525,165379,99259
12721,90090.81934270363,1671368410.58,526,165449,99229
12721,90090.82744417031,1671368410.58,526,165449,99229
12722,90090.83554563699,1671368410.58,525,165325,99168
12722,90090.84364710367,1671368410.58,525,165325,99168
