id,lsl_ts,unix_ts,ambient,ir,red
207342,14383.32548105,1671629612.473,553,112729,70749
207342,14383.32548105,1671629612.473,553,112729,70749
207343,14383.3282558,1671629612.473,536,125956,72444
207343,14383.3282558,1671629612.473,536,125956,72444
207344,14383.33103055,1671629612.473,535,125939,72439
207344,14383.33103055,1671629612.473,535,125939,72439
207345,14383.3338053,1671629612.473,533,125948,72422
207345,14383.3338053,1671629612.473,533,125948,72422
207346,14383.33658005,1671629612.473,533,125879,72436
207346,14383.33658005,1671629612.473,533,125879,72436
207347,14383.3393548,1671629612.473,531,125877,72410
207347,14383.3393548,1671629612.473,531,125877,72410
207348,14383.350582933333,1671629612.54,531,125892,72421
207348,14383.350582933333,1671629612.54,531,125892,72421
207349,14383.361811066667,1671629612.54,530,125911,72408
207349,14383.361811066667,1671629612.54,530,125911,72408
207350,14383.3730392,1671629612.54,532,125879,72383
207350,14383.3730392,1671629612.54,532,125879,72383
207351,14383.384267333333,1671629612.54,534,125852,72387
207351,14383.384267333333,1671629612.54,534,125852,72387
207352,14383.395495466666,1671629612.54,533,125845,72385
207352,14383.395495466666,1671629612.54,533,125845,72385
207353,14383.4067236,1671629612.54,532,125786,72379
207353,14383.4067236,1671629612.54,532,125786,72379
207354,14383.416793666665,1671629612.6,533,125869,72389
207354,14383.416793666665,1671629612.6,533,125869,72389
207355,14383.426863733333,1671629612.6,532,125829,72367
207355,14383.426863733333,1671629612.6,532,125829,72367
207356,14383.4369338,1671629612.6,531,125851,72398
207356,14383.4369338,1671629612.6,531,125851,72398
207357,14383.447003866666,1671629612.6,530,125856,72384
207357,14383.447003866666,1671629612.6,530,125856,72384
207358,14383.457073933334,1671629612.6,533,125831,72387
207358,14383.457073933334,1671629612.6,533,125831,72387
207359,14383.467144,1671629612.6,533,125913,72374
207359,14383.467144,1671629612.6,533,125913,72374
207360,14383.481433016666,1671629612.686,533,125817,72395
207360,14383.481433016666,1671629612.686,533,125817,72395
207361,14383.495722033333,1671629612.686,532,125862,72394
207361,14383.495722033333,1671629612.686,532,125862,72394
207362,14383.510011049999,1671629612.686,533,125903,72390
207362,14383.510011049999,1671629612.686,533,125903,72390
207363,14383.524300066667,1671629612.686,530,125899,72393
207363,14383.524300066667,1671629612.686,530,125899,72393
207364,14383.538589083333,1671629612.686,530,125811,72378
207364,14383.538589083333,1671629612.686,530,125811,72378
207365,14383.5528781,1671629612.686,530,125915,72388
207365,14383.5528781,1671629612.686,530,125915,72388
207366,14383.568192949999,1671629612.778,533,125874,72392
207366,14383.568192949999,1671629612.778,533,125874,72392
207367,14383.5835078,1671629612.778,531,125874,72402
207367,14383.5835078,1671629612.778,531,125874,72402
207368,14383.59882265,1671629612.778,532,125915,72413
207368,14383.59882265,1671629612.778,532,125915,72413
207369,14383.614137499999,1671629612.778,532,125846,72396
207369,14383.614137499999,1671629612.778,532,125846,72396
207370,14383.62945235,1671629612.778,532,125953,72422
207370,14383.62945235,1671629612.778,532,125953,72422
207371,14383.6447672,1671629612.778,530,125892,72415
207371,14383.6447672,1671629612.778,530,125892,72415
207372,14383.662221333332,1671629612.883,531,125952,72399
207372,14383.662221333332,1671629612.883,531,125952,72399
207373,14383.679675466667,1671629612.883,531,125944,72406
207373,14383.679675466667,1671629612.883,531,125944,72406
207374,14383.697129600001,1671629612.883,532,125896,72396
207374,14383.697129600001,1671629612.883,532,125896,72396
207375,14383.714583733334,1671629612.883,531,125953,72407
207375,14383.714583733334,1671629612.883,531,125953,72407
207376,14383.732037866666,1671629612.883,532,125971,72416
207376,14383.732037866666,1671629612.883,532,125971,72416
207377,14383.749492,1671629612.883,532,125914,72405
207377,14383.749492,1671629612.883,532,125914,72405
207378,14383.764860566667,1671629612.975,532,125966,72429
207378,14383.764860566667,1671629612.975,532,125966,72429
207379,14383.780229133334,1671629612.975,531,126038,72414
207379,14383.780229133334,1671629612.975,531,126038,72414
207380,14383.7955977,1671629612.975,530,125982,72425
207380,14383.7955977,1671629612.975,530,125982,72425
207381,14383.810966266667,1671629612.975,530,125999,72471
207381,14383.810966266667,1671629612.975,530,125999,72471
207382,14383.826334833333,1671629612.975,531,126072,72454
207382,14383.826334833333,1671629612.975,531,126072,72454
207383,14383.8417034,1671629612.975,531,125976,72419
207383,14383.8417034,1671629612.975,531,125976,72419
207384,14383.8564013,1671629613.063,533,126037,72438
207384,14383.8564013,1671629613.063,533,126037,72438
207385,14383.8710992,1671629613.063,532,126016,72438
207385,14383.8710992,1671629613.063,532,126016,72438
207386,14383.8857971,1671629613.063,533,126008,72451
207386,14383.8857971,1671629613.063,533,126008,72451
207387,14383.900495,1671629613.063,531,125944,72452
207387,14383.900495,1671629613.063,531,125944,72452
207388,14383.9151929,1671629613.063,530,126107,72474
207388,14383.9151929,1671629613.063,530,126107,72474
207389,14383.9298908,1671629613.063,531,126067,72457
207389,14383.9298908,1671629613.063,531,126067,72457
207390,14383.948583366666,1671629613.175,532,126004,72454
207390,14383.948583366666,1671629613.175,532,126004,72454
207391,14383.967275933333,1671629613.175,531,125998,72446
207391,14383.967275933333,1671629613.175,531,125998,72446
207392,14383.985968500001,1671629613.175,533,126005,72437
207392,14383.985968500001,1671629613.175,533,126005,72437
207393,14384.004661066667,1671629613.175,531,125949,72420
207393,14384.004661066667,1671629613.175,531,125949,72420
207394,14384.023353633333,1671629613.175,533,125937,72433
207394,14384.023353633333,1671629613.175,533,125937,72433
207395,14384.0420462,1671629613.175,531,126003,72427
207395,14384.0420462,1671629613.175,531,126003,72427
207396,14384.053783216666,1671629613.246,531,125898,72393
207396,14384.053783216666,1671629613.246,531,125898,72393
207397,14384.065520233333,1671629613.246,532,125999,72417
207397,14384.065520233333,1671629613.246,532,125999,72417
207398,14384.07725725,1671629613.246,531,125935,72416
207398,14384.07725725,1671629613.246,531,125935,72416
207399,14384.088994266667,1671629613.246,532,125899,72416
207399,14384.088994266667,1671629613.246,532,125899,72416
207400,14384.100731283334,1671629613.246,534,125890,72421
207400,14384.100731283334,1671629613.246,534,125890,72421
207401,14384.1124683,1671629613.246,532,125883,72405
207401,14384.1124683,1671629613.246,532,125883,72405
207402,14384.129841883334,1671629613.35,532,125867,72415
207402,14384.129841883334,1671629613.35,532,125867,72415
207403,14384.147215466666,1671629613.35,531,125934,72427
207403,14384.147215466666,1671629613.35,531,125934,72427
207404,14384.16458905,1671629613.35,532,125819,72403
207404,14384.16458905,1671629613.35,532,125819,72403
207405,14384.181962633334,1671629613.35,532,125864,72410
207405,14384.181962633334,1671629613.35,532,125864,72410
207406,14384.199336216667,1671629613.35,532,125854,72428
207406,14384.199336216667,1671629613.35,532,125854,72428
207407,14384.2167098,1671629613.35,533,125900,72413
207407,14384.2167098,1671629613.35,533,125900,72413
207408,14384.232088466668,1671629613.442,532,125887,72412
207408,14384.232088466668,1671629613.442,532,125887,72412
207409,14384.247467133335,1671629613.442,531,125851,72407
207409,14384.247467133335,1671629613.442,531,125851,72407
207410,14384.2628458,1671629613.442,531,125885,72420
207410,14384.2628458,1671629613.442,531,125885,72420
207411,14384.278224466667,1671629613.442,531,125835,72384
207411,14384.278224466667,1671629613.442,531,125835,72384
207412,14384.293603133334,1671629613.442,531,125769,72392
207412,14384.293603133334,1671629613.442,531,125769,72392
207413,14384.3089818,1671629613.442,530,125783,72389
207413,14384.3089818,1671629613.442,530,125783,72389
207414,14384.323963866667,1671629613.532,531,125759,72392
207414,14384.323963866667,1671629613.532,531,125759,72392
207415,14384.338945933334,1671629613.532,532,125803,72382
207415,14384.338945933334,1671629613.532,532,125803,72382
207416,14384.353928,1671629613.532,531,125831,72400
207416,14384.353928,1671629613.532,531,125831,72400
207417,14384.368910066667,1671629613.532,531,125852,72379
207417,14384.368910066667,1671629613.532,531,125852,72379
207418,14384.383892133334,1671629613.532,532,125894,72410
207418,14384.383892133334,1671629613.532,532,125894,72410
207419,14384.3988742,1671629613.532,531,125797,72391
207419,14384.3988742,1671629613.532,531,125797,72391
207420,14384.41410715,1671629613.624,529,125792,72385
207420,14384.41410715,1671629613.624,529,125792,72385
207421,14384.4293401,1671629613.624,530,125849,72397
207421,14384.4293401,1671629613.624,530,125849,72397
207422,14384.444573050001,1671629613.624,530,125862,72397
207422,14384.444573050001,1671629613.624,530,125862,72397
207423,14384.459806,1671629613.624,532,125852,72400
207423,14384.459806,1671629613.624,532,125852,72400
207424,14384.47503895,1671629613.624,532,125939,72412
207424,14384.47503895,1671629613.624,532,125939,72412
207425,14384.4902719,1671629613.624,532,125899,72420
207425,14384.4902719,1671629613.624,532,125899,72420
207426,14384.508450883333,1671629613.733,530,125910,72400
207426,14384.508450883333,1671629613.733,530,125910,72400
207427,14384.526629866667,1671629613.733,530,125935,72419
207427,14384.526629866667,1671629613.733,530,125935,72419
207428,14384.54480885,1671629613.733,531,125875,72418
207428,14384.54480885,1671629613.733,531,125875,72418
207429,14384.562987833333,1671629613.733,529,125944,72402
207429,14384.562987833333,1671629613.733,529,125944,72402
207430,14384.581166816666,1671629613.733,531,125890,72407
207430,14384.581166816666,1671629613.733,531,125890,72407
207431,14384.5993458,1671629613.733,531,125906,72370
207431,14384.5993458,1671629613.733,531,125906,72370
207432,14384.612894433332,1671629613.814,533,125903,72424
207432,14384.612894433332,1671629613.814,533,125903,72424
207433,14384.626443066667,1671629613.814,532,125906,72403
207433,14384.626443066667,1671629613.814,532,125906,72403
207434,14384.6399917,1671629613.814,530,125917,72422
207434,14384.6399917,1671629613.814,530,125917,72422
207435,14384.653540333333,1671629613.814,532,125872,72421
207435,14384.653540333333,1671629613.814,532,125872,72421
207436,14384.667088966668,1671629613.814,531,125921,72415
207436,14384.667088966668,1671629613.814,531,125921,72415
207437,14384.6806376,1671629613.814,531,125933,72423
207437,14384.6806376,1671629613.814,531,125933,72423
207438,14384.695331983334,1671629613.902,532,125961,72413
207438,14384.695331983334,1671629613.902,532,125961,72413
207439,14384.710026366667,1671629613.902,531,125988,72424
207439,14384.710026366667,1671629613.902,531,125988,72424
207440,14384.72472075,1671629613.902,534,125945,72408
207440,14384.72472075,1671629613.902,534,125945,72408
207441,14384.739415133334,1671629613.902,531,126061,72448
207441,14384.739415133334,1671629613.902,531,126061,72448
207442,14384.754109516667,1671629613.902,533,126013,72409
207442,14384.754109516667,1671629613.902,533,126013,72409
207443,14384.7688039,1671629613.902,531,126025,72418
207443,14384.7688039,1671629613.902,531,126025,72418
207444,14384.784399483335,1671629613.996,532,126019,72421
207444,14384.784399483335,1671629613.996,532,126019,72421
207445,14384.799995066667,1671629613.996,530,126042,72434
207445,14384.799995066667,1671629613.996,530,126042,72434
207446,14384.81559065,1671629613.996,531,126065,72434
207446,14384.81559065,1671629613.996,531,126065,72434
207447,14384.831186233334,1671629613.996,532,126070,72445
207447,14384.831186233334,1671629613.996,532,126070,72445
207448,14384.846781816668,1671629613.996,531,126060,72439
207448,14384.846781816668,1671629613.996,531,126060,72439
207449,14384.8623774,1671629613.996,531,126109,72447
207449,14384.8623774,1671629613.996,531,126109,72447
207450,14384.879384933334,1671629614.098,533,126084,72437
207450,14384.879384933334,1671629614.098,533,126084,72437
207451,14384.896392466668,1671629614.098,532,126163,72427
207451,14384.896392466668,1671629614.098,532,126163,72427
207452,14384.913400000001,1671629614.098,531,126107,72448
207452,14384.913400000001,1671629614.098,531,126107,72448
207453,14384.930407533333,1671629614.098,530,126103,72462
207453,14384.930407533333,1671629614.098,530,126103,72462
207454,14384.947415066667,1671629614.098,531,126100,72468
207454,14384.947415066667,1671629614.098,531,126100,72468
207455,14384.9644226,1671629614.098,533,126081,72445
207455,14384.9644226,1671629614.098,533,126081,72445
207456,14384.978612833333,1671629614.183,533,126202,72462
207456,14384.978612833333,1671629614.183,533,126202,72462
207457,14384.992803066667,1671629614.183,532,126194,72480
207457,14384.992803066667,1671629614.183,532,126194,72480
207458,14385.006993300001,1671629614.183,533,126178,72460
207458,14385.006993300001,1671629614.183,533,126178,72460
207459,14385.021183533334,1671629614.183,531,126182,72443
207459,14385.021183533334,1671629614.183,531,126182,72443
207460,14385.035373766666,1671629614.183,530,126162,72453
207460,14385.035373766666,1671629614.183,530,126162,72453
207461,14385.049564,1671629614.183,529,126154,72437
207461,14385.049564,1671629614.183,529,126154,72437
207462,14385.06592135,1671629614.281,532,126114,72431
207462,14385.06592135,1671629614.281,532,126114,72431
207463,14385.0822787,1671629614.281,532,126105,72440
207463,14385.0822787,1671629614.281,532,126105,72440
207464,14385.09863605,1671629614.281,535,126084,72415
207464,14385.09863605,1671629614.281,535,126084,72415
207465,14385.1149934,1671629614.281,531,126069,72443
207465,14385.1149934,1671629614.281,531,126069,72443
207466,14385.13135075,1671629614.281,533,126034,72426
207466,14385.13135075,1671629614.281,533,126034,72426
207467,14385.1477081,1671629614.281,531,126123,72456
207467,14385.1477081,1671629614.281,531,126123,72456
207468,14385.163206733332,1671629614.374,531,126024,72411
207468,14385.163206733332,1671629614.374,531,126024,72411
207469,14385.178705366667,1671629614.374,531,126036,72448
207469,14385.178705366667,1671629614.374,531,126036,72448
207470,14385.194204,1671629614.374,531,126059,72439
207470,14385.194204,1671629614.374,531,126059,72439
207471,14385.209702633332,1671629614.374,533,126057,72427
207471,14385.209702633332,1671629614.374,533,126057,72427
207472,14385.225201266667,1671629614.374,532,126079,72437
207472,14385.225201266667,1671629614.374,532,126079,72437
207473,14385.2406999,1671629614.374,533,126002,72445
207473,14385.2406999,1671629614.374,533,126002,72445
207474,14385.256254283333,1671629614.467,531,125997,72426
207474,14385.256254283333,1671629614.467,531,125997,72426
207475,14385.271808666666,1671629614.467,531,125955,72420
207475,14385.271808666666,1671629614.467,531,125955,72420
207476,14385.28736305,1671629614.467,530,125978,72416
207476,14385.28736305,1671629614.467,530,125978,72416
207477,14385.302917433333,1671629614.467,530,126056,72438
207477,14385.302917433333,1671629614.467,530,126056,72438
207478,14385.318471816667,1671629614.467,530,126011,72431
207478,14385.318471816667,1671629614.467,530,126011,72431
207479,14385.3340262,1671629614.467,533,125987,72411
207479,14385.3340262,1671629614.467,533,125987,72411
207480,14385.35081215,1671629614.568,532,126026,72405
207480,14385.35081215,1671629614.568,532,126026,72405
207481,14385.3675981,1671629614.568,531,125990,72404
207481,14385.3675981,1671629614.568,531,125990,72404
207482,14385.384384050001,1671629614.568,532,125947,72394
207482,14385.384384050001,1671629614.568,532,125947,72394
207483,14385.401170000001,1671629614.568,530,126060,72422
207483,14385.401170000001,1671629614.568,530,126060,72422
207484,14385.41795595,1671629614.568,531,126002,72401
207484,14385.41795595,1671629614.568,531,126002,72401
207485,14385.4347419,1671629614.568,530,126002,72404
207485,14385.4347419,1671629614.568,530,126002,72404
207486,14385.448705933333,1671629614.652,531,125957,72381
207486,14385.448705933333,1671629614.652,531,125957,72381
207487,14385.462669966668,1671629614.652,532,125954,72387
207487,14385.462669966668,1671629614.652,532,125954,72387
207488,14385.476634,1671629614.652,532,126020,72397
207488,14385.476634,1671629614.652,532,126020,72397
207489,14385.490598033333,1671629614.652,532,125910,72401
207489,14385.490598033333,1671629614.652,532,125910,72401
207490,14385.504562066668,1671629614.652,530,125945,72396
207490,14385.504562066668,1671629614.652,530,125945,72396
207491,14385.5185261,1671629614.652,531,126050,72408
207491,14385.5185261,1671629614.652,531,126050,72408
207492,14385.533909183334,1671629614.744,530,125982,72397
207492,14385.533909183334,1671629614.744,530,125982,72397
207493,14385.549292266667,1671629614.744,530,125969,72381
207493,14385.549292266667,1671629614.744,530,125969,72381
207494,14385.56467535,1671629614.744,530,126091,72385
207494,14385.56467535,1671629614.744,530,126091,72385
207495,14385.580058433334,1671629614.744,533,126039,72425
207495,14385.580058433334,1671629614.744,533,126039,72425
207496,14385.595441516667,1671629614.744,531,126070,72389
207496,14385.595441516667,1671629614.744,531,126070,72389
207497,14385.6108246,1671629614.744,532,125989,72406
207497,14385.6108246,1671629614.744,532,125989,72406
207498,14385.6278562,1671629614.846,530,126077,72406
207498,14385.6278562,1671629614.846,530,126077,72406
207499,14385.644887800001,1671629614.846,532,125942,72407
207499,14385.644887800001,1671629614.846,532,125942,72407
207500,14385.661919400001,1671629614.846,529,126078,72398
207500,14385.661919400001,1671629614.846,529,126078,72398
207501,14385.678951,1671629614.846,531,126028,72381
207501,14385.678951,1671629614.846,531,126028,72381
207502,14385.6959826,1671629614.846,530,125998,72398
207502,14385.6959826,1671629614.846,530,125998,72398
207503,14385.7130142,1671629614.846,533,126039,72399
207503,14385.7130142,1671629614.846,533,126039,72399
207504,14385.727754683334,1671629614.935,533,126026,72388
207504,14385.727754683334,1671629614.935,533,126026,72388
207505,14385.742495166667,1671629614.935,531,126051,72405
207505,14385.742495166667,1671629614.935,531,126051,72405
207506,14385.75723565,1671629614.935,531,126082,72400
207506,14385.75723565,1671629614.935,531,126082,72400
207507,14385.771976133334,1671629614.935,531,126067,72399
207507,14385.771976133334,1671629614.935,531,126067,72399
207508,14385.786716616667,1671629614.935,531,126090,72387
207508,14385.786716616667,1671629614.935,531,126090,72387
207509,14385.8014571,1671629614.935,531,126078,72397
207509,14385.8014571,1671629614.935,531,126078,72397
207510,14385.816935533334,1671629615.028,532,126080,72393
207510,14385.816935533334,1671629615.028,532,126080,72393
207511,14385.832413966667,1671629615.028,533,126145,72415
207511,14385.832413966667,1671629615.028,533,126145,72415
207512,14385.847892400001,1671629615.028,532,126120,72398
207512,14385.847892400001,1671629615.028,532,126120,72398
207513,14385.863370833333,1671629615.028,532,126067,72394
207513,14385.863370833333,1671629615.028,532,126067,72394
207514,14385.878849266666,1671629615.028,532,126139,72406
207514,14385.878849266666,1671629615.028,532,126139,72406
207515,14385.8943277,1671629615.028,531,126191,72410
207515,14385.8943277,1671629615.028,531,126191,72410
207516,14385.910423,1671629615.124,531,126218,72414
207516,14385.910423,1671629615.124,531,126218,72414
207517,14385.9265183,1671629615.124,532,126100,72406
207517,14385.9265183,1671629615.124,532,126100,72406
207518,14385.9426136,1671629615.124,533,126179,72410
207518,14385.9426136,1671629615.124,533,126179,72410
207519,14385.9587089,1671629615.124,534,126189,72401
207519,14385.9587089,1671629615.124,534,126189,72401
207520,14385.974804200001,1671629615.124,532,126290,72394
207520,14385.974804200001,1671629615.124,532,126290,72394
207521,14385.9908995,1671629615.124,532,126247,72410
207521,14385.9908995,1671629615.124,532,126247,72410
207522,14386.006587266667,1671629615.218,531,126251,72436
207522,14386.006587266667,1671629615.218,531,126251,72436
207523,14386.022275033334,1671629615.218,532,126174,72420
207523,14386.022275033334,1671629615.218,532,126174,72420
207524,14386.037962800001,1671629615.218,531,126272,72422
207524,14386.037962800001,1671629615.218,531,126272,72422
207525,14386.053650566666,1671629615.218,530,126249,72416
207525,14386.053650566666,1671629615.218,530,126249,72416
207526,14386.069338333333,1671629615.218,531,126276,72428
207526,14386.069338333333,1671629615.218,531,126276,72428
207527,14386.0850261,1671629615.218,533,126306,72426
207527,14386.0850261,1671629615.218,533,126306,72426
207528,14386.101443216667,1671629615.317,532,126312,72412
207528,14386.101443216667,1671629615.317,532,126312,72412
207529,14386.117860333334,1671629615.317,532,126309,72406
207529,14386.117860333334,1671629615.317,532,126309,72406
207530,14386.13427745,1671629615.317,531,126287,72416
207530,14386.13427745,1671629615.317,531,126287,72416
207531,14386.150694566666,1671629615.317,531,126292,72414
207531,14386.150694566666,1671629615.317,531,126292,72414
207532,14386.167111683333,1671629615.317,529,126217,72386
207532,14386.167111683333,1671629615.317,529,126217,72386
207533,14386.1835288,1671629615.317,531,126190,72385
207533,14386.1835288,1671629615.317,531,126190,72385
207534,14386.197061166667,1671629615.398,531,126172,72357
207534,14386.197061166667,1671629615.398,531,126172,72357
207535,14386.210593533333,1671629615.398,533,126173,72388
207535,14386.210593533333,1671629615.398,533,126173,72388
207536,14386.2241259,1671629615.398,532,126135,72373
207536,14386.2241259,1671629615.398,532,126135,72373
207537,14386.237658266667,1671629615.398,533,126139,72361
207537,14386.237658266667,1671629615.398,533,126139,72361
207538,14386.251190633333,1671629615.398,533,126229,72380
207538,14386.251190633333,1671629615.398,533,126229,72380
207539,14386.264723,1671629615.398,532,126196,72388
207539,14386.264723,1671629615.398,532,126196,72388
207540,14386.281892,1671629615.501,533,126153,72361
207540,14386.281892,1671629615.501,533,126153,72361
207541,14386.299061,1671629615.501,531,126129,72359
207541,14386.299061,1671629615.501,531,126129,72359
207542,14386.31623,1671629615.501,532,126108,72365
207542,14386.31623,1671629615.501,532,126108,72365
207543,14386.333399000001,1671629615.501,532,126072,72346
207543,14386.333399000001,1671629615.501,532,126072,72346
207544,14386.350568,1671629615.501,533,126121,72356
207544,14386.350568,1671629615.501,533,126121,72356
207545,14386.367737,1671629615.501,532,126196,72362
207545,14386.367737,1671629615.501,532,126196,72362
207546,14386.38434835,1671629615.601,530,126147,72366
207546,14386.38434835,1671629615.601,530,126147,72366
207547,14386.4009597,1671629615.601,530,126122,72346
207547,14386.4009597,1671629615.601,530,126122,72346
207548,14386.41757105,1671629615.601,531,126208,72358
207548,14386.41757105,1671629615.601,531,126208,72358
207549,14386.4341824,1671629615.601,530,126194,72353
207549,14386.4341824,1671629615.601,530,126194,72353
207550,14386.45079375,1671629615.601,530,126141,72332
207550,14386.45079375,1671629615.601,530,126141,72332
207551,14386.4674051,1671629615.601,534,126201,72365
207551,14386.4674051,1671629615.601,534,126201,72365
207552,14386.48559955,1671629615.71,530,126149,72350
207552,14386.48559955,1671629615.71,530,126149,72350
207553,14386.503794,1671629615.71,532,126151,72322
207553,14386.503794,1671629615.71,532,126151,72322
207554,14386.52198845,1671629615.71,531,126128,72347
207554,14386.52198845,1671629615.71,531,126128,72347
207555,14386.5401829,1671629615.71,531,126152,72323
207555,14386.5401829,1671629615.71,531,126152,72323
207556,14386.55837735,1671629615.71,532,126173,72329
207556,14386.55837735,1671629615.71,532,126173,72329
207557,14386.5765718,1671629615.71,530,126194,72337
207557,14386.5765718,1671629615.71,530,126194,72337
207558,14386.590182816666,1671629615.791,532,126213,72319
207558,14386.590182816666,1671629615.791,532,126213,72319
207559,14386.603793833334,1671629615.791,533,126052,72310
207559,14386.603793833334,1671629615.791,533,126052,72310
207560,14386.61740485,1671629615.791,532,126149,72333
207560,14386.61740485,1671629615.791,532,126149,72333
207561,14386.631015866666,1671629615.791,533,126081,72314
207561,14386.631015866666,1671629615.791,533,126081,72314
207562,14386.644626883333,1671629615.791,531,126128,72306
207562,14386.644626883333,1671629615.791,531,126128,72306
207563,14386.6582379,1671629615.791,530,126172,72323
207563,14386.6582379,1671629615.791,530,126172,72323
207564,14386.6718628,1671629615.873,528,126210,72310
207564,14386.6718628,1671629615.873,528,126210,72310
207565,14386.685487699999,1671629615.873,530,126199,72305
207565,14386.685487699999,1671629615.873,530,126199,72305
207566,14386.6991126,1671629615.873,532,126175,72310
207566,14386.6991126,1671629615.873,532,126175,72310
207567,14386.7127375,1671629615.873,532,126158,72305
207567,14386.7127375,1671629615.873,532,126158,72305
207568,14386.726362399999,1671629615.873,531,126158,72323
207568,14386.726362399999,1671629615.873,531,126158,72323
207569,14386.7399873,1671629615.873,530,126176,72298
207569,14386.7399873,1671629615.873,530,126176,72298
207570,14386.755884566666,1671629615.969,531,126206,72270
207570,14386.755884566666,1671629615.969,531,126206,72270
207571,14386.771781833333,1671629615.969,531,126158,72268
207571,14386.771781833333,1671629615.969,531,126158,72268
207572,14386.7876791,1671629615.969,530,126165,72283
207572,14386.7876791,1671629615.969,530,126165,72283
207573,14386.803576366667,1671629615.969,530,126169,72282
207573,14386.803576366667,1671629615.969,530,126169,72282
207574,14386.819473633333,1671629615.969,531,126270,72298
207574,14386.819473633333,1671629615.969,531,126270,72298
207575,14386.8353709,1671629615.969,532,126240,72286
207575,14386.8353709,1671629615.969,532,126240,72286
207576,14386.851037383334,1671629616.063,532,126231,72292
207576,14386.851037383334,1671629616.063,532,126231,72292
207577,14386.866703866666,1671629616.063,532,126233,72276
207577,14386.866703866666,1671629616.063,532,126233,72276
207578,14386.88237035,1671629616.063,530,126239,72277
207578,14386.88237035,1671629616.063,530,126239,72277
207579,14386.898036833334,1671629616.063,531,126261,72283
207579,14386.898036833334,1671629616.063,531,126261,72283
207580,14386.913703316666,1671629616.063,530,126338,72264
207580,14386.913703316666,1671629616.063,530,126338,72264
207581,14386.9293698,1671629616.063,531,126161,72268
207581,14386.9293698,1671629616.063,531,126161,72268
207582,14386.945083633334,1671629616.157,531,126179,72269
207582,14386.945083633334,1671629616.157,531,126179,72269
207583,14386.960797466667,1671629616.157,532,126259,72261
207583,14386.960797466667,1671629616.157,532,126259,72261
207584,14386.9765113,1671629616.157,531,126309,72268
207584,14386.9765113,1671629616.157,531,126309,72268
207585,14386.992225133334,1671629616.157,532,126233,72261
207585,14386.992225133334,1671629616.157,532,126233,72261
207586,14387.007938966668,1671629616.157,531,126246,72256
207586,14387.007938966668,1671629616.157,531,126246,72256
207587,14387.0236528,1671629616.157,531,126295,72277
207587,14387.0236528,1671629616.157,531,126295,72277
207588,14387.038400633333,1671629616.245,531,126251,72261
207588,14387.038400633333,1671629616.245,531,126251,72261
207589,14387.053148466666,1671629616.245,531,126281,72263
207589,14387.053148466666,1671629616.245,531,126281,72263
207590,14387.0678963,1671629616.245,531,126274,72277
207590,14387.0678963,1671629616.245,531,126274,72277
207591,14387.082644133334,1671629616.245,532,126307,72258
207591,14387.082644133334,1671629616.245,532,126307,72258
207592,14387.091689642892,1671629616.245,533,126182,72222
207592,14387.098629759475,1671629616.245,533,126182,72222
207593,14387.10556987606,1671629616.245,532,126224,72228
207593,14387.112509992643,1671629616.245,532,126224,72228
207594,14387.119450109227,1671629616.348,529,126159,72221
207594,14387.12639022581,1671629616.348,529,126159,72221
207595,14387.133330342394,1671629616.348,530,126173,72200
207595,14387.140270458978,1671629616.348,530,126173,72200
207596,14387.147210575562,1671629616.348,531,126205,72229
207596,14387.154150692146,1671629616.348,531,126205,72229
207597,14387.16109080873,1671629616.348,530,126221,72219
207597,14387.168030925313,1671629616.348,530,126221,72219
207598,14387.174971041897,1671629616.348,531,126170,72212
207598,14387.181911158481,1671629616.348,531,126170,72212
207599,14387.188851275065,1671629616.348,531,126190,72205
207599,14387.195791391649,1671629616.348,531,126190,72205
207600,14387.202731508232,1671629616.433,530,126211,72203
207600,14387.209671624816,1671629616.433,530,126211,72203
207601,14387.2166117414,1671629616.433,531,126206,72189
207601,14387.223551857984,1671629616.433,531,126206,72189
207602,14387.252785115988,1671629616.433,528,126220,72182
207602,14387.25981247465,1671629616.433,528,126220,72182
207603,14387.26683983331,1671629616.433,530,126155,72207
207603,14387.27386719197,1671629616.433,530,126155,72207
207604,14387.280894550631,1671629616.433,532,126115,72157
207604,14387.287921909292,1671629616.433,532,126115,72157
207605,14387.294949267953,1671629616.433,530,126187,72166
207605,14387.301976626613,1671629616.433,530,126187,72166
207606,14387.309003985274,1671629616.527,530,126095,72155
207606,14387.316031343935,1671629616.527,530,126095,72155
207607,14387.323058702596,1671629616.527,531,126149,72185
207607,14387.330086061256,1671629616.527,531,126149,72185
207608,14387.337113419917,1671629616.527,532,126170,72142
207608,14387.344140778578,1671629616.527,532,126170,72142
207609,14387.351168137238,1671629616.527,532,126041,72141
207609,14387.358195495899,1671629616.527,532,126041,72141
207610,14387.36522285456,1671629616.527,530,126143,72156
207610,14387.37225021322,1671629616.527,530,126143,72156
207611,14387.379277571881,1671629616.527,530,126066,72132
207611,14387.386304930542,1671629616.527,530,126066,72132
207612,14387.403820082118,1671629616.626,531,126155,72120
207612,14387.411198469446,1671629616.626,531,126155,72120
207613,14387.418576856775,1671629616.626,532,126080,72107
207613,14387.425955244104,1671629616.626,532,126080,72107
207614,14387.433333631432,1671629616.626,531,126138,72122
207614,14387.44071201876,1671629616.626,531,126138,72122
207615,14387.44809040609,1671629616.626,532,126159,72117
207615,14387.455468793418,1671629616.626,532,126159,72117
207616,14387.462847180746,1671629616.626,532,126063,72116
207616,14387.470225568075,1671629616.626,532,126063,72116
207617,14387.477603955404,1671629616.626,533,126058,72091
207617,14387.484982342732,1671629616.626,533,126058,72091
207618,14387.49236073006,1671629616.724,530,126090,72110
207618,14387.49973911739,1671629616.724,530,126090,72110
207619,14387.507117504718,1671629616.724,529,126042,72079
207619,14387.514495892046,1671629616.724,529,126042,72079
207620,14387.521874279375,1671629616.724,531,126141,72099
207620,14387.529252666704,1671629616.724,531,126141,72099
207621,14387.536631054032,1671629616.724,531,126106,72082
207621,14387.54400944136,1671629616.724,531,126106,72082
207622,14387.567708284878,1671629616.724,532,126080,72077
207622,14387.575374055963,1671629616.724,532,126080,72077
207623,14387.583039827048,1671629616.724,533,126097,72043
207623,14387.590705598133,1671629616.724,533,126097,72043
207624,14387.598371369219,1671629616.816,530,126112,72062
207624,14387.606037140304,1671629616.816,530,126112,72062
207625,14387.613702911389,1671629616.816,532,126133,72079
207625,14387.621368682474,1671629616.816,532,126133,72079
207626,14387.62903445356,1671629616.816,530,126109,72050
207626,14387.636700224644,1671629616.816,530,126109,72050
207627,14387.64436599573,1671629616.816,531,126073,72042
207627,14387.652031766815,1671629616.816,531,126073,72042
207628,14387.6596975379,1671629616.816,530,126078,72064
207628,14387.667363308985,1671629616.816,530,126078,72064
207629,14387.67502908007,1671629616.816,531,126145,72052
207629,14387.682694851155,1671629616.816,531,126145,72052
207630,14387.69036062224,1671629616.9,532,126061,72030
207630,14387.698026393326,1671629616.9,532,126061,72030
207631,14387.70569216441,1671629616.9,531,126146,72050
207631,14387.713357935496,1671629616.9,531,126146,72050
207632,14387.719763990302,1671629616.9,531,126071,72017
207632,14387.726517073741,1671629616.9,531,126071,72017
207633,14387.73327015718,1671629616.9,532,126073,72051
207633,14387.740023240618,1671629616.9,532,126073,72051
207634,14387.746776324057,1671629616.9,530,126188,72053
207634,14387.753529407495,1671629616.9,530,126188,72053
207635,14387.760282490934,1671629616.9,529,126143,72033
207635,14387.767035574372,1671629616.9,529,126143,72033
207636,14387.77378865781,1671629617.009,530,126087,72024
207636,14387.78054174125,1671629617.009,530,126087,72024
207637,14387.787294824688,1671629617.009,530,126166,72007
207637,14387.794047908126,1671629617.009,530,126166,72007
207638,14387.800800991565,1671629617.009,532,126139,72009
207638,14387.807554075003,1671629617.009,532,126139,72009
207639,14387.814307158442,1671629617.009,532,126138,72009
207639,14387.82106024188,1671629617.009,532,126138,72009
207640,14387.827813325319,1671629617.009,530,126174,71995
207640,14387.834566408757,1671629617.009,530,126174,71995
207641,14387.841319492196,1671629617.009,531,126119,72004
207641,14387.848072575634,1671629617.009,531,126119,72004
207642,14387.886262861633,1671629617.09,530,126092,71993
207642,14387.894718858674,1671629617.09,530,126092,71993
207643,14387.903174855714,1671629617.09,529,126201,72027
207643,14387.911630852754,1671629617.09,529,126201,72027
207644,14387.920086849794,1671629617.09,530,126156,71997
207644,14387.928542846834,1671629617.09,530,126156,71997
207645,14387.936998843874,1671629617.09,532,126135,72012
207645,14387.945454840914,1671629617.09,532,126135,72012
207646,14387.953910837954,1671629617.09,532,126151,71984
207646,14387.962366834994,1671629617.09,532,126151,71984
207647,14387.970822832034,1671629617.09,532,126169,72001
207647,14387.979278829074,1671629617.09,532,126169,72001
207648,14387.987734826114,1671629617.185,530,126271,72005
207648,14387.996190823154,1671629617.185,530,126271,72005
207649,14388.004646820194,1671629617.185,531,126149,72008
207649,14388.013102817235,1671629617.185,531,126149,72008
207650,14388.021558814275,1671629617.185,531,126228,71983
207650,14388.030014811315,1671629617.185,531,126228,71983
207651,14388.038470808355,1671629617.185,531,126210,71979
207651,14388.046926805395,1671629617.185,531,126210,71979
207652,14388.029372458683,1671629617.185,533,126171,71973
207652,14388.036731779299,1671629617.185,533,126171,71973
207653,14388.044091099915,1671629617.185,532,126162,71976
207653,14388.051450420531,1671629617.185,532,126162,71976
207654,14388.058809741147,1671629617.277,532,126193,71985
207654,14388.066169061764,1671629617.277,532,126193,71985
207655,14388.07352838238,1671629617.277,531,126246,71978
207655,14388.080887702996,1671629617.277,531,126246,71978
207656,14388.088247023612,1671629617.277,532,126206,71987
207656,14388.095606344228,1671629617.277,532,126206,71987
207657,14388.102965664844,1671629617.277,530,126178,71954
207657,14388.11032498546,1671629617.277,530,126178,71954
207658,14388.117684306077,1671629617.277,529,126262,71947
207658,14388.125043626693,1671629617.277,529,126262,71947
207659,14388.132402947309,1671629617.277,530,126121,71917
207659,14388.139762267925,1671629617.277,530,126121,71917
207660,14388.147121588541,1671629617.374,530,126101,71911
207660,14388.154480909157,1671629617.374,530,126101,71911
207661,14388.161840229774,1671629617.374,529,126149,71915
207661,14388.16919955039,1671629617.374,529,126149,71915
207662,14388.185601647905,1671629617.374,532,126091,71919
207662,14388.193053250365,1671629617.374,532,126091,71919
207663,14388.200504852824,1671629617.374,531,126054,71890
207663,14388.207956455284,1671629617.374,531,126054,71890
207664,14388.215408057744,1671629617.374,531,126024,71898
207664,14388.222859660204,1671629617.374,531,126024,71898
207665,14388.230311262663,1671629617.374,531,126044,71878
207665,14388.237762865123,1671629617.374,531,126044,71878
207666,14388.245214467583,1671629617.474,529,126126,71887
207666,14388.252666070042,1671629617.474,529,126126,71887
207667,14388.260117672502,1671629617.474,531,126022,71851
207667,14388.267569274962,1671629617.474,531,126022,71851
207668,14388.275020877421,1671629617.474,531,126088,71872
207668,14388.282472479881,1671629617.474,531,126088,71872
207669,14388.28992408234,1671629617.474,530,126103,71847
207669,14388.2973756848,1671629617.474,530,126103,71847
207670,14388.30482728726,1671629617.474,531,125982,71846
207670,14388.31227888972,1671629617.474,531,125982,71846
207671,14388.31973049218,1671629617.474,531,125995,71823
207671,14388.32718209464,1671629617.474,531,125995,71823
207672,14388.350726935923,1671629617.563,532,125962,71804
207672,14388.358545572024,1671629617.563,532,125962,71804
207673,14388.366364208125,1671629617.563,532,125953,71799
207673,14388.374182844225,1671629617.563,532,125953,71799
207674,14388.382001480326,1671629617.563,531,126020,71786
207674,14388.389820116427,1671629617.563,531,126020,71786
207675,14388.397638752527,1671629617.563,532,125949,71783
207675,14388.405457388628,1671629617.563,532,125949,71783
207676,14388.413276024728,1671629617.563,530,126013,71782
207676,14388.42109466083,1671629617.563,530,126013,71782
207677,14388.42891329693,1671629617.563,531,125935,71757
207677,14388.43673193303,1671629617.563,531,125935,71757
207678,14388.444550569131,1671629617.655,533,125849,71739
207678,14388.452369205232,1671629617.655,533,125849,71739
207679,14388.460187841332,1671629617.655,532,125961,71755
207679,14388.468006477433,1671629617.655,532,125961,71755
207680,14388.475825113534,1671629617.655,532,125930,71726
207680,14388.483643749634,1671629617.655,532,125930,71726
207681,14388.491462385735,1671629617.655,531,126020,71766
207681,14388.499281021835,1671629617.655,531,126020,71766
207682,14388.500063683425,1671629617.655,531,125896,71717
207682,14388.50723331045,1671629617.655,531,125896,71717
207683,14388.514402937477,1671629617.655,530,125923,71716
207683,14388.521572564503,1671629617.655,530,125923,71716
207684,14388.52874219153,1671629617.752,531,125924,71684
207684,14388.535911818555,1671629617.752,531,125924,71684
207685,14388.543081445581,1671629617.752,531,125845,71689
207685,14388.550251072607,1671629617.752,531,125845,71689
207686,14388.557420699633,1671629617.752,533,125888,71685
207686,14388.56459032666,1671629617.752,533,125888,71685
207687,14388.571759953686,1671629617.752,530,125989,71685
207687,14388.578929580712,1671629617.752,530,125989,71685
207688,14388.586099207738,1671629617.752,532,125935,71686
207688,14388.593268834764,1671629617.752,532,125935,71686
207689,14388.60043846179,1671629617.752,531,125935,71680
207689,14388.607608088816,1671629617.752,531,125935,71680
207690,14388.614777715842,1671629617.85,530,125747,71658
207690,14388.621947342868,1671629617.85,530,125747,71658
207691,14388.629116969894,1671629617.85,531,125835,71653
207691,14388.63628659692,1671629617.85,531,125835,71653
207692,14388.661508594188,1671629617.85,532,125870,71640
207692,14388.66911825472,1671629617.85,532,125870,71640
207693,14388.676727915252,1671629617.85,532,125905,71636
207693,14388.684337575784,1671629617.85,532,125905,71636
207694,14388.691947236315,1671629617.85,533,125882,71623
207694,14388.699556896847,1671629617.85,533,125882,71623
207695,14388.707166557379,1671629617.85,534,125919,71646
207695,14388.71477621791,1671629617.85,534,125919,71646
207696,14388.722385878442,1671629617.937,531,125966,71664
207696,14388.729995538974,1671629617.937,531,125966,71664
207697,14388.737605199505,1671629617.937,532,125901,71626
207697,14388.745214860037,1671629617.937,532,125901,71626
207698,14388.752824520569,1671629617.937,531,125940,71620
207698,14388.7604341811,1671629617.937,531,125940,71620
207699,14388.768043841632,1671629617.937,530,125904,71617
207699,14388.775653502164,1671629617.937,530,125904,71617
207700,14388.783263162695,1671629617.937,530,125913,71609
207700,14388.790872823227,1671629617.937,530,125913,71609
207701,14388.798482483759,1671629617.937,532,125845,71619
207701,14388.80609214429,1671629617.937,532,125845,71619
207702,14388.813048030226,1671629618.028,534,125829,71607
207702,14388.819905738248,1671629618.028,534,125829,71607
207703,14388.82676344627,1671629618.028,534,125887,71588
207703,14388.833621154292,1671629618.028,534,125887,71588
207704,14388.840478862314,1671629618.028,531,125957,71610
207704,14388.847336570336,1671629618.028,531,125957,71610
207705,14388.854194278358,1671629618.028,530,125791,71579
207705,14388.86105198638,1671629618.028,530,125791,71579
207706,14388.867909694402,1671629618.028,531,125955,71587
207706,14388.874767402423,1671629618.028,531,125955,71587
207707,14388.881625110445,1671629618.028,532,125846,71592
207707,14388.888482818467,1671629618.028,532,125846,71592
207708,14388.89534052649,1671629618.124,530,125986,71598
207708,14388.902198234511,1671629618.124,530,125986,71598
207709,14388.909055942533,1671629618.124,532,125907,71567
207709,14388.915913650555,1671629618.124,532,125907,71567
207710,14388.922771358577,1671629618.124,533,125880,71571
207710,14388.929629066599,1671629618.124,533,125880,71571
207711,14388.93648677462,1671629618.124,531,125956,71591
207711,14388.943344482643,1671629618.124,531,125956,71591
207712,14388.968359780705,1671629618.124,531,125963,71578
207712,14388.975778844115,1671629618.124,531,125963,71578
207713,14388.983197907524,1671629618.124,531,125876,71565
207713,14388.990616970934,1671629618.124,531,125876,71565
207714,14388.998036034343,1671629618.222,531,125939,71572
207714,14389.005455097753,1671629618.222,531,125939,71572
207715,14389.012874161162,1671629618.222,530,125915,71566
207715,14389.020293224572,1671629618.222,530,125915,71566
207716,14389.027712287982,1671629618.222,532,125818,71552
207716,14389.035131351391,1671629618.222,532,125818,71552
207717,14389.0425504148,1671629618.222,531,125852,71560
207717,14389.04996947821,1671629618.222,531,125852,71560
207718,14389.05738854162,1671629618.222,533,125904,71564
207718,14389.06480760503,1671629618.222,533,125904,71564
207719,14389.072226668439,1671629618.222,531,125943,71581
207719,14389.079645731848,1671629618.222,531,125943,71581
207720,14389.087064795258,1671629618.315,531,125958,71574
207720,14389.094483858667,1671629618.315,531,125958,71574
207721,14389.101902922077,1671629618.315,529,125989,71552
207721,14389.109321985487,1671629618.315,529,125989,71552
207722,14389.129314391897,1671629618.315,532,125881,71535
207722,14389.136712496944,1671629618.315,532,125881,71535
207723,14389.14411060199,1671629618.315,530,125848,71543
207723,14389.151508707037,1671629618.315,530,125848,71543
207724,14389.158906812083,1671629618.315,531,125862,71502
207724,14389.16630491713,1671629618.315,531,125862,71502
207725,14389.173703022176,1671629618.315,530,125857,71491
207725,14389.181101127222,1671629618.315,530,125857,71491
207726,14389.188499232268,1671629618.401,533,125761,71484
207726,14389.195897337315,1671629618.401,533,125761,71484
207727,14389.203295442361,1671629618.401,532,125794,71484
207727,14389.210693547408,1671629618.401,532,125794,71484
207728,14389.218091652454,1671629618.401,533,125846,71466
207728,14389.2254897575,1671629618.401,533,125846,71466
207729,14389.232887862547,1671629618.401,530,125756,71457
207729,14389.240285967593,1671629618.401,530,125756,71457
207730,14389.24768407264,1671629618.401,531,125817,71485
207730,14389.255082177686,1671629618.401,531,125817,71485
207731,14389.262480282732,1671629618.401,532,125677,71449
207731,14389.269878387779,1671629618.401,532,125677,71449
207732,14389.27624380448,1671629618.495,531,125798,71452
207732,14389.282945915082,1671629618.495,531,125798,71452
207733,14389.289648025684,1671629618.495,531,125781,71427
207733,14389.296350136286,1671629618.495,531,125781,71427
207734,14389.303052246889,1671629618.495,533,125711,71441
207734,14389.309754357491,1671629618.495,533,125711,71441
207735,14389.316456468094,1671629618.495,531,125789,71434
207735,14389.323158578696,1671629618.495,531,125789,71434
207736,14389.329860689299,1671629618.495,533,125736,71393
207736,14389.336562799901,1671629618.495,533,125736,71393
207737,14389.343264910503,1671629618.495,532,125710,71385
207737,14389.349967021106,1671629618.495,532,125710,71385
207738,14389.356669131708,1671629618.609,531,125756,71397
207738,14389.36337124231,1671629618.609,531,125756,71397
207739,14389.370073352913,1671629618.609,531,125734,71404
207739,14389.376775463516,1671629618.609,531,125734,71404
207740,14389.383477574118,1671629618.609,531,125681,71386
207740,14389.39017968472,1671629618.609,531,125681,71386
207741,14389.396881795323,1671629618.609,531,125613,71366
207741,14389.403583905925,1671629618.609,531,125613,71366
207742,14389.449606920778,1671629618.609,532,125735,71371
207742,14389.458429283242,1671629618.609,532,125735,71371
207743,14389.467251645707,1671629618.609,532,125645,71370
207743,14389.476074008171,1671629618.609,532,125645,71370
207744,14389.484896370635,1671629618.683,531,125642,71335
207744,14389.4937187331,1671629618.683,531,125642,71335
207745,14389.502541095564,1671629618.683,530,125620,71336
207745,14389.511363458028,1671629618.683,530,125620,71336
207746,14389.520185820493,1671629618.683,530,125685,71347
207746,14389.529008182957,1671629618.683,530,125685,71347
207747,14389.537830545421,1671629618.683,529,125680,71323
207747,14389.546652907886,1671629618.683,529,125680,71323
207748,14389.55547527035,1671629618.683,530,125607,71330
207748,14389.564297632814,1671629618.683,530,125607,71330
207749,14389.573119995279,1671629618.683,533,125585,71307
207749,14389.581942357743,1671629618.683,533,125585,71307
207750,14389.590764720208,1671629618.779,533,125612,71296
207750,14389.599587082672,1671629618.779,533,125612,71296
207751,14389.608409445136,1671629618.779,530,125585,71308
207751,14389.6172318076,1671629618.779,530,125585,71308
207752,14389.590654520005,1671629618.779,532,125525,71294
207752,14389.59763654189,1671629618.779,532,125525,71294
207753,14389.604618563775,1671629618.779,531,125599,71292
207753,14389.61160058566,1671629618.779,531,125599,71292
207754,14389.618582607545,1671629618.779,531,125679,71277
207754,14389.62556462943,1671629618.779,531,125679,71277
207755,14389.632546651315,1671629618.779,530,125702,71307
207755,14389.6395286732,1671629618.779,530,125702,71307
207756,14389.646510695085,1671629618.875,531,125618,71291
207756,14389.65349271697,1671629618.875,531,125618,71291
207757,14389.660474738856,1671629618.875,532,125532,71280
207757,14389.66745676074,1671629618.875,532,125532,71280
207758,14389.674438782626,1671629618.875,533,125530,71263
207758,14389.68142080451,1671629618.875,533,125530,71263
207759,14389.688402826396,1671629618.875,533,125630,71279
207759,14389.69538484828,1671629618.875,533,125630,71279
207760,14389.702366870166,1671629618.875,530,125574,71252
207760,14389.709348892051,1671629618.875,530,125574,71252
207761,14389.716330913936,1671629618.875,530,125557,71275
207761,14389.723312935821,1671629618.875,530,125557,71275
207762,14389.751071751645,1671629618.975,529,125662,71289
207762,14389.758537608102,1671629618.975,529,125662,71289
207763,14389.76600346456,1671629618.975,531,125575,71273
207763,14389.773469321017,1671629618.975,531,125575,71273
207764,14389.780935177474,1671629618.975,531,125586,71288
207764,14389.788401033931,1671629618.975,531,125586,71288
207765,14389.795866890388,1671629618.975,530,125594,71243
207765,14389.803332746846,1671629618.975,530,125594,71243
207766,14389.810798603303,1671629618.975,531,125566,71259
207766,14389.81826445976,1671629618.975,531,125566,71259
207767,14389.825730316217,1671629618.975,531,125590,71253
207767,14389.833196172674,1671629618.975,531,125590,71253
207768,14389.840662029132,1671629619.06,531,125624,71264
207768,14389.848127885589,1671629619.06,531,125624,71264
207769,14389.855593742046,1671629619.06,531,125594,71261
207769,14389.863059598503,1671629619.06,531,125594,71261
207770,14389.87052545496,1671629619.06,529,125602,71265
207770,14389.877991311418,1671629619.06,529,125602,71265
207771,14389.885457167875,1671629619.06,531,125590,71257
207771,14389.892923024332,1671629619.06,531,125590,71257
207772,14389.906841544682,1671629619.06,530,125608,71273
207772,14389.913519560407,1671629619.06,530,125608,71273
207773,14389.920197576132,1671629619.06,531,125692,71286
207773,14389.926875591857,1671629619.06,531,125692,71286
207774,14389.933553607581,1671629619.154,532,125664,71275
207774,14389.940231623306,1671629619.154,532,125664,71275
207775,14389.946909639031,1671629619.154,531,125604,71261
207775,14389.953587654756,1671629619.154,531,125604,71261
207776,14389.960265670481,1671629619.154,531,125676,71261
207776,14389.966943686206,1671629619.154,531,125676,71261
207777,14389.97362170193,1671629619.154,531,125565,71241
207777,14389.980299717656,1671629619.154,531,125565,71241
207778,14389.98697773338,1671629619.154,531,125646,71257
207778,14389.993655749106,1671629619.154,531,125646,71257
207779,14390.00033376483,1671629619.154,530,125648,71285
207779,14390.007011780555,1671629619.154,530,125648,71285
207780,14390.01368979628,1671629619.264,530,125620,71244
207780,14390.020367812005,1671629619.264,530,125620,71244
207781,14390.02704582773,1671629619.264,531,125604,71262
207781,14390.033723843455,1671629619.264,531,125604,71262
207782,14390.068040202072,1671629619.264,531,125721,71266
207782,14390.076263980423,1671629619.264,531,125721,71266
207783,14390.084487758775,1671629619.264,530,125648,71243
207783,14390.092711537127,1671629619.264,530,125648,71243
207784,14390.100935315479,1671629619.264,530,125632,71257
207784,14390.10915909383,1671629619.264,530,125632,71257
207785,14390.117382872182,1671629619.264,530,125650,71226
207785,14390.125606650534,1671629619.264,530,125650,71226
207786,14390.133830428886,1671629619.371,530,125482,71197
207786,14390.142054207237,1671629619.371,530,125482,71197
207787,14390.15027798559,1671629619.371,530,125581,71193
207787,14390.15850176394,1671629619.371,530,125581,71193
207788,14390.166725542293,1671629619.371,531,125464,71198
207788,14390.174949320644,1671629619.371,531,125464,71198
207789,14390.183173098996,1671629619.371,531,125495,71176
207789,14390.191396877348,1671629619.371,531,125495,71176
207790,14390.1996206557,1671629619.371,531,125483,71177
207790,14390.207844434051,1671629619.371,531,125483,71177
207791,14390.216068212403,1671629619.371,531,125421,71164
207791,14390.224291990755,1671629619.371,531,125421,71164
207792,14390.24831940521,1671629619.437,531,125383,71157
207792,14390.256661901614,1671629619.437,531,125383,71157
207793,14390.26500439802,1671629619.437,530,125432,71180
207793,14390.273346894424,1671629619.437,530,125432,71180
207794,14390.28168939083,1671629619.437,529,125421,71155
207794,14390.290031887234,1671629619.437,529,125421,71155
207795,14390.29837438364,1671629619.437,532,125378,71125
207795,14390.306716880044,1671629619.437,532,125378,71125
207796,14390.31505937645,1671629619.437,529,125386,71134
207796,14390.323401872854,1671629619.437,529,125386,71134
207797,14390.33174436926,1671629619.437,531,125357,71128
207797,14390.340086865664,1671629619.437,531,125357,71128
207798,14390.34842936207,1671629619.526,529,125274,71090
207798,14390.356771858475,1671629619.526,529,125274,71090
207799,14390.36511435488,1671629619.526,532,125294,71121
207799,14390.373456851285,1671629619.526,532,125294,71121
207800,14390.38179934769,1671629619.526,531,125295,71088
207800,14390.390141844095,1671629619.526,531,125295,71088
207801,14390.3984843405,1671629619.526,531,125388,71091
207801,14390.406826836905,1671629619.526,531,125388,71091
207802,14390.372311307852,1671629619.526,528,125242,71086
207802,14390.379175719592,1671629619.526,528,125242,71086
207803,14390.386040131332,1671629619.526,530,125347,71088
207803,14390.392904543072,1671629619.526,530,125347,71088
207804,14390.399768954812,1671629619.619,530,125278,71057
207804,14390.406633366552,1671629619.619,530,125278,71057
207805,14390.413497778292,1671629619.619,532,125293,71061
207805,14390.420362190032,1671629619.619,532,125293,71061
207806,14390.427226601772,1671629619.619,531,125270,71043
207806,14390.434091013512,1671629619.619,531,125270,71043
207807,14390.440955425252,1671629619.619,531,125251,71075
207807,14390.447819836992,1671629619.619,531,125251,71075
207808,14390.454684248733,1671629619.619,530,125242,71051
207808,14390.461548660473,1671629619.619,530,125242,71051
207809,14390.468413072213,1671629619.619,530,125265,71052
207809,14390.475277483953,1671629619.619,530,125265,71052
207810,14390.482141895693,1671629619.714,530,125288,71052
207810,14390.489006307433,1671629619.714,530,125288,71052
207811,14390.495870719173,1671629619.714,529,125231,71027
207811,14390.502735130913,1671629619.714,529,125231,71027
207812,14390.526551452695,1671629619.714,529,125232,71043
207812,14390.533902232479,1671629619.714,529,125232,71043
207813,14390.541253012263,1671629619.714,531,125263,71019
207813,14390.548603792047,1671629619.714,531,125263,71019
207814,14390.555954571832,1671629619.714,531,125190,71019
207814,14390.563305351616,1671629619.714,531,125190,71019
207815,14390.5706561314,1671629619.714,529,125214,71030
207815,14390.578006911184,1671629619.714,529,125214,71030
207816,14390.585357690969,1671629619.811,530,125187,71014
207816,14390.592708470753,1671629619.811,530,125187,71014
207817,14390.600059250537,1671629619.811,529,125141,71015
207817,14390.607410030321,1671629619.811,529,125141,71015
207818,14390.614760810106,1671629619.811,529,125176,71010
207818,14390.62211158989,1671629619.811,529,125176,71010
207819,14390.629462369674,1671629619.811,531,125208,71020
207819,14390.636813149458,1671629619.811,531,125208,71020
207820,14390.644163929242,1671629619.811,529,125162,71023
207820,14390.651514709027,1671629619.811,529,125162,71023
207821,14390.658865488811,1671629619.811,532,125167,71003
207821,14390.666216268595,1671629619.811,532,125167,71003
207822,14390.687798974775,1671629619.926,530,125167,70995
207822,14390.69542112767,1671629619.926,530,125167,70995
207823,14390.703043280564,1671629619.926,530,125218,71014
207823,14390.710665433458,1671629619.926,530,125218,71014
207824,14390.718287586353,1671629619.926,530,125213,70999
207824,14390.725909739247,1671629619.926,530,125213,70999
207825,14390.733531892141,1671629619.926,530,125168,71013
207825,14390.741154045036,1671629619.926,530,125168,71013
207826,14390.74877619793,1671629619.926,530,125225,71018
207826,14390.756398350824,1671629619.926,530,125225,71018
207827,14390.764020503719,1671629619.926,529,125256,71006
207827,14390.771642656613,1671629619.926,529,125256,71006
207828,14390.779264809507,1671629619.992,530,125238,71018
207828,14390.786886962402,1671629619.992,530,125238,71018
207829,14390.794509115296,1671629619.992,531,125179,71004
207829,14390.80213126819,1671629619.992,531,125179,71004
207830,14390.809753421085,1671629619.992,530,125214,70997
207830,14390.817375573979,1671629619.992,530,125214,70997
207831,14390.824997726873,1671629619.992,532,125296,71032
207831,14390.832619879768,1671629619.992,532,125296,71032
207832,14390.844022329911,1671629619.992,530,125208,71005
207832,14390.849378711753,1671629619.992,530,125208,71005
207833,14390.854735093595,1671629619.992,530,125241,71038
207833,14390.860091475437,1671629619.992,530,125241,71038
207834,14390.865447857279,1671629620.096,528,125189,71003
207834,14390.87080423912,1671629620.096,528,125189,71003
207835,14390.876160620963,1671629620.096,529,125192,70994
207835,14390.881517002805,1671629620.096,529,125192,70994
207836,14390.886873384647,1671629620.096,530,125205,71014
207836,14390.892229766489,1671629620.096,530,125205,71014
207837,14390.89758614833,1671629620.096,532,125201,71037
207837,14390.902942530172,1671629620.096,532,125201,71037
207838,14390.908298912014,1671629620.096,530,125242,71028
207838,14390.913655293856,1671629620.096,530,125242,71028
207839,14390.919011675698,1671629620.096,531,125215,71031
207839,14390.92436805754,1671629620.096,531,125215,71031
207840,14390.929724439382,1671629620.19,529,125153,71016
207840,14390.935080821224,1671629620.19,529,125153,71016
207841,14390.940437203066,1671629620.19,529,125240,71026
207841,14390.945793584908,1671629620.19,529,125240,71026
207842,14391.004144972516,1671629620.19,530,125299,71035
207842,14391.011747965218,1671629620.19,530,125299,71035
207843,14391.01935095792,1671629620.19,530,125286,71041
207843,14391.026953950623,1671629620.19,530,125286,71041
207844,14391.034556943325,1671629620.19,530,125280,71035
207844,14391.042159936027,1671629620.19,530,125280,71035
207845,14391.04976292873,1671629620.19,533,125273,71022
207845,14391.057365921431,1671629620.19,533,125273,71022
207846,14391.064968914134,1671629620.275,533,125241,71027
207846,14391.072571906836,1671629620.275,533,125241,71027
207847,14391.080174899538,1671629620.275,531,125280,71020
207847,14391.08777789224,1671629620.275,531,125280,71020
207848,14391.095380884943,1671629620.275,529,125190,70997
207848,14391.102983877645,1671629620.275,529,125190,70997
207849,14391.110586870347,1671629620.275,531,125171,70976
207849,14391.11818986305,1671629620.275,531,125171,70976
207850,14391.125792855752,1671629620.275,529,125166,71013
207850,14391.133395848454,1671629620.275,529,125166,71013
207851,14391.140998841156,1671629620.275,530,125162,70976
207851,14391.148601833858,1671629620.275,530,125162,70976
207852,14391.150648852547,1671629620.374,530,125031,70993
207852,14391.15728036438,1671629620.374,530,125031,70993
207853,14391.163911876212,1671629620.374,531,125148,70981
207853,14391.170543388045,1671629620.374,531,125148,70981
207854,14391.177174899878,1671629620.374,531,125112,70963
207854,14391.183806411711,1671629620.374,531,125112,70963
207855,14391.190437923544,1671629620.374,530,125051,70948
207855,14391.197069435377,1671629620.374,530,125051,70948
207856,14391.20370094721,1671629620.374,532,125055,70929
207856,14391.210332459043,1671629620.374,532,125055,70929
207857,14391.216963970875,1671629620.374,530,125001,70941
207857,14391.223595482708,1671629620.374,530,125001,70941
207858,14391.230226994541,1671629620.466,530,124972,70956
207858,14391.236858506374,1671629620.466,530,124972,70956
207859,14391.243490018207,1671629620.466,531,125032,70951
207859,14391.25012153004,1671629620.466,531,125032,70951
207860,14391.256753041873,1671629620.466,530,124946,70911
207860,14391.263384553706,1671629620.466,530,124946,70911
207861,14391.270016065539,1671629620.466,532,124982,70917
207861,14391.276647577371,1671629620.466,532,124982,70917
207862,14391.311426704215,1671629620.466,532,124878,70928
207862,14391.31867937456,1671629620.466,532,124878,70928
207863,14391.325932044907,1671629620.466,532,124936,70907
207863,14391.333184715253,1671629620.466,532,124936,70907
207864,14391.3404373856,1671629620.563,530,125000,70912
207864,14391.347690055945,1671629620.563,530,125000,70912
207865,14391.354942726291,1671629620.563,529,124905,70889
207865,14391.362195396638,1671629620.563,529,124905,70889
207866,14391.369448066984,1671629620.563,530,124888,70882
207866,14391.37670073733,1671629620.563,530,124888,70882
207867,14391.383953407676,1671629620.563,530,124937,70898
207867,14391.391206078022,1671629620.563,530,124937,70898
207868,14391.398458748368,1671629620.563,530,124807,70888
207868,14391.405711418714,1671629620.563,530,124807,70888
207869,14391.41296408906,1671629620.563,533,124811,70884
207869,14391.420216759407,1671629620.563,533,124811,70884
207870,14391.427469429753,1671629620.651,532,124851,70850
207870,14391.434722100099,1671629620.651,532,124851,70850
207871,14391.441974770445,1671629620.651,532,124807,70853
207871,14391.449227440791,1671629620.651,532,124807,70853
207872,14391.46864478911,1671629620.651,531,124852,70835
207872,14391.475694907118,1671629620.651,531,124852,70835
207873,14391.482745025125,1671629620.651,530,124844,70860
207873,14391.489795143132,1671629620.651,530,124844,70860
207874,14391.49684526114,1671629620.651,530,124741,70847
207874,14391.503895379146,1671629620.651,530,124741,70847
207875,14391.510945497153,1671629620.651,530,124858,70854
207875,14391.51799561516,1671629620.651,530,124858,70854
207876,14391.525045733168,1671629620.746,531,124761,70819
207876,14391.532095851175,1671629620.746,531,124761,70819
207877,14391.539145969182,1671629620.746,532,124811,70849
207877,14391.546196087189,1671629620.746,532,124811,70849
207878,14391.553246205196,1671629620.746,530,124813,70829
207878,14391.560296323203,1671629620.746,530,124813,70829
207879,14391.56734644121,1671629620.746,531,124757,70837
207879,14391.574396559217,1671629620.746,531,124757,70837
207880,14391.581446677224,1671629620.746,530,124804,70857
207880,14391.588496795232,1671629620.746,530,124804,70857
207881,14391.595546913239,1671629620.746,529,124800,70851
207881,14391.602597031246,1671629620.746,529,124800,70851
207882,14391.622171566038,1671629620.841,529,124771,70819
207882,14391.629591226061,1671629620.841,529,124771,70819
207883,14391.637010886085,1671629620.841,529,124774,70849
207883,14391.644430546108,1671629620.841,529,124774,70849
207884,14391.651850206132,1671629620.841,531,124865,70839
207884,14391.659269866155,1671629620.841,531,124865,70839
207885,14391.666689526179,1671629620.841,530,124794,70851
207885,14391.674109186202,1671629620.841,530,124794,70851
207886,14391.681528846226,1671629620.841,530,124754,70852
207886,14391.68894850625,1671629620.841,530,124754,70852
207887,14391.696368166273,1671629620.841,531,124797,70864
207887,14391.703787826296,1671629620.841,531,124797,70864
207888,14391.71120748632,1671629620.934,530,124774,70843
207888,14391.718627146343,1671629620.934,530,124774,70843
207889,14391.726046806367,1671629620.934,529,124875,70871
207889,14391.73346646639,1671629620.934,529,124875,70871
207890,14391.740886126414,1671629620.934,529,124807,70869
207890,14391.748305786437,1671629620.934,529,124807,70869
207891,14391.755725446461,1671629620.934,530,124778,70870
207891,14391.763145106484,1671629620.934,530,124778,70870
207892,14391.779071082103,1671629620.934,532,124798,70841
207892,14391.786362004543,1671629620.934,532,124798,70841
207893,14391.793652926983,1671629620.934,531,124788,70847
207893,14391.800943849423,1671629620.934,531,124788,70847
207894,14391.808234771863,1671629621.042,530,124858,70876
207894,14391.815525694303,1671629621.042,530,124858,70876
207895,14391.822816616743,1671629621.042,532,124838,70864
207895,14391.830107539183,1671629621.042,532,124838,70864
207896,14391.837398461623,1671629621.042,530,124831,70854
207896,14391.844689384063,1671629621.042,530,124831,70854
207897,14391.851980306503,1671629621.042,530,124709,70881
207897,14391.859271228943,1671629621.042,530,124709,70881
207898,14391.866562151383,1671629621.042,530,124811,70884
207898,14391.873853073823,1671629621.042,530,124811,70884
207899,14391.881143996263,1671629621.042,532,124778,70877
207899,14391.888434918703,1671629621.042,532,124778,70877
207900,14391.895725841143,1671629621.123,533,124871,70905
207900,14391.903016763583,1671629621.123,533,124871,70905
207901,14391.910307686023,1671629621.123,533,124777,70872
207901,14391.917598608463,1671629621.123,533,124777,70872
207902,14391.945322435118,1671629621.123,530,124863,70872
207902,14391.95230124407,1671629621.123,530,124863,70872
207903,14391.95928005302,1671629621.123,530,124802,70882
207903,14391.966258861972,1671629621.123,530,124802,70882
207904,14391.973237670923,1671629621.123,528,124675,70871
207904,14391.980216479875,1671629621.123,528,124675,70871
207905,14391.987195288826,1671629621.123,530,124829,70895
207905,14391.994174097777,1671629621.123,530,124829,70895
207906,14392.001152906729,1671629621.216,530,124826,70872
207906,14392.00813171568,1671629621.216,530,124826,70872
207907,14392.015110524631,1671629621.216,530,124845,70915
207907,14392.022089333583,1671629621.216,530,124845,70915
207908,14392.029068142534,1671629621.216,531,124831,70891
207908,14392.036046951485,1671629621.216,531,124831,70891
207909,14392.043025760437,1671629621.216,530,124734,70873
207909,14392.050004569388,1671629621.216,530,124734,70873
207910,14392.05698337834,1671629621.216,531,124651,70837
207910,14392.06396218729,1671629621.216,531,124651,70837
207911,14392.070940996242,1671629621.216,530,124751,70863
207911,14392.077919805193,1671629621.216,530,124751,70863
207912,14392.092445992872,1671629621.312,530,124719,70847
207912,14392.099690042822,1671629621.312,530,124719,70847
207913,14392.106934092772,1671629621.312,530,124654,70832
207913,14392.114178142721,1671629621.312,530,124654,70832
207914,14392.121422192671,1671629621.312,528,124662,70844
207914,14392.128666242621,1671629621.312,528,124662,70844
207915,14392.13591029257,1671629621.312,531,124620,70836
207915,14392.14315434252,1671629621.312,531,124620,70836
207916,14392.15039839247,1671629621.312,530,124628,70831
207916,14392.15764244242,1671629621.312,530,124628,70831
207917,14392.16488649237,1671629621.312,530,124642,70823
207917,14392.17213054232,1671629621.312,530,124642,70823
207918,14392.17937459227,1671629621.408,530,124657,70820
207918,14392.18661864222,1671629621.408,530,124657,70820
207919,14392.19386269217,1671629621.408,530,124605,70804
207919,14392.201106742119,1671629621.408,530,124605,70804
207920,14392.208350792069,1671629621.408,529,124520,70798
207920,14392.215594842019,1671629621.408,529,124520,70798
207921,14392.222838891968,1671629621.408,529,124615,70814
207921,14392.230082941918,1671629621.408,529,124615,70814
207922,14392.252876346183,1671629621.408,528,124630,70815
207922,14392.260412138752,1671629621.408,528,124630,70815
207923,14392.267947931321,1671629621.408,530,124535,70784
207923,14392.27548372389,1671629621.408,530,124535,70784
207924,14392.283019516459,1671629621.498,531,124475,70778
207924,14392.290555309028,1671629621.498,531,124475,70778
207925,14392.298091101597,1671629621.498,531,124557,70770
207925,14392.305626894165,1671629621.498,531,124557,70770
207926,14392.313162686734,1671629621.498,530,124473,70780
207926,14392.320698479303,1671629621.498,530,124473,70780
207927,14392.328234271872,1671629621.498,529,124569,70806
207927,14392.335770064441,1671629621.498,529,124569,70806
207928,14392.34330585701,1671629621.498,529,124497,70774
207928,14392.350841649579,1671629621.498,529,124497,70774
207929,14392.358377442148,1671629621.498,529,124469,70785
207929,14392.365913234717,1671629621.498,529,124469,70785
207930,14392.373449027285,1671629621.599,528,124534,70787
207930,14392.380984819854,1671629621.599,528,124534,70787
207931,14392.388520612423,1671629621.599,531,124465,70749
207931,14392.396056404992,1671629621.599,531,124465,70749
207932,14392.408245788953,1671629621.599,530,124494,70764
207932,14392.415865438574,1671629621.599,530,124494,70764
207933,14392.423485088195,1671629621.599,529,124450,70764
207933,14392.431104737816,1671629621.599,529,124450,70764
207934,14392.438724387437,1671629621.599,530,124465,70768
207934,14392.446344037058,1671629621.599,530,124465,70768
207935,14392.45396368668,1671629621.599,528,124448,70763
207935,14392.4615833363,1671629621.599,528,124448,70763
207936,14392.469202985922,1671629621.683,529,124467,70765
207936,14392.476822635543,1671629621.683,529,124467,70765
207937,14392.484442285164,1671629621.683,530,124457,70770
207937,14392.492061934785,1671629621.683,530,124457,70770
207938,14392.499681584406,1671629621.683,529,124407,70744
207938,14392.507301234027,1671629621.683,529,124407,70744
207939,14392.514920883648,1671629621.683,530,124448,70746
207939,14392.52254053327,1671629621.683,530,124448,70746
207940,14392.53016018289,1671629621.683,532,124398,70763
207940,14392.537779832512,1671629621.683,532,124398,70763
207941,14392.545399482133,1671629621.683,529,124499,70758
207941,14392.553019131754,1671629621.683,529,124499,70758
207942,14392.558822109611,1671629621.779,531,124335,70726
207942,14392.56543599342,1671629621.779,531,124335,70726
207943,14392.572049877228,1671629621.779,530,124440,70755
207943,14392.578663761036,1671629621.779,530,124440,70755
207944,14392.585277644845,1671629621.779,528,124490,70756
207944,14392.591891528653,1671629621.779,528,124490,70756
207945,14392.598505412461,1671629621.779,529,124466,70781
207945,14392.60511929627,1671629621.779,529,124466,70781
207946,14392.611733180078,1671629621.779,530,124504,70782
207946,14392.618347063886,1671629621.779,530,124504,70782
207947,14392.624960947694,1671629621.779,529,124347,70757
207947,14392.631574831503,1671629621.779,529,124347,70757
207948,14392.638188715311,1671629621.867,532,124403,70755
207948,14392.64480259912,1671629621.867,532,124403,70755
207949,14392.651416482928,1671629621.867,529,124456,70771
207949,14392.658030366736,1671629621.867,529,124456,70771
207950,14392.664644250544,1671629621.867,530,124440,70787
207950,14392.671258134353,1671629621.867,530,124440,70787
207951,14392.677872018161,1671629621.867,530,124509,70803
207951,14392.68448590197,1671629621.867,530,124509,70803
207952,14392.713668845521,1671629621.867,530,124412,70768
207952,14392.720582602751,1671629621.867,530,124412,70768
207953,14392.727496359981,1671629621.867,529,124485,70774
207953,14392.734410117211,1671629621.867,529,124485,70774
207954,14392.741323874441,1671629621.973,530,124500,70788
207954,14392.748237631671,1671629621.973,530,124500,70788
207955,14392.755151388901,1671629621.973,531,124473,70778
207955,14392.762065146131,1671629621.973,531,124473,70778
207956,14392.768978903361,1671629621.973,532,124473,70789
207956,14392.775892660591,1671629621.973,532,124473,70789
207957,14392.782806417821,1671629621.973,530,124528,70803
207957,14392.789720175051,1671629621.973,530,124528,70803
207958,14392.796633932281,1671629621.973,531,124487,70806
207958,14392.803547689511,1671629621.973,531,124487,70806
207959,14392.810461446741,1671629621.973,529,124532,70807
207959,14392.817375203971,1671629621.973,529,124532,70807
207960,14392.824288961201,1671629622.063,530,124476,70804
207960,14392.831202718431,1671629622.063,530,124476,70804
207961,14392.838116475661,1671629622.063,530,124531,70819
207961,14392.845030232891,1671629622.063,530,124531,70819
207962,14392.879485282583,1671629622.063,531,124529,70801
207962,14392.886862766763,1671629622.063,531,124529,70801
207963,14392.894240250944,1671629622.063,531,124483,70815
207963,14392.901617735124,1671629622.063,531,124483,70815
207964,14392.908995219304,1671629622.063,533,124551,70847
207964,14392.916372703485,1671629622.063,533,124551,70847
207965,14392.923750187665,1671629622.063,530,124546,70821
207965,14392.931127671845,1671629622.063,530,124546,70821
207966,14392.938505156026,1671629622.159,530,124420,70809
207966,14392.945882640206,1671629622.159,530,124420,70809
207967,14392.953260124386,1671629622.159,529,124619,70838
207967,14392.960637608567,1671629622.159,529,124619,70838
207968,14392.968015092747,1671629622.159,530,124534,70842
207968,14392.975392576927,1671629622.159,530,124534,70842
207969,14392.982770061108,1671629622.159,529,124572,70821
207969,14392.990147545288,1671629622.159,529,124572,70821
207970,14392.997525029468,1671629622.159,530,124449,70803
207970,14393.004902513649,1671629622.159,530,124449,70803
207971,14393.012279997829,1671629622.159,532,124417,70803
207971,14393.01965748201,1671629622.159,532,124417,70803
207972,14393.03507112786,1671629622.245,530,124496,70814
207972,14393.042556426546,1671629622.245,530,124496,70814
207973,14393.050041725231,1671629622.245,532,124386,70785
207973,14393.057527023917,1671629622.245,532,124386,70785
207974,14393.065012322602,1671629622.245,531,124344,70774
207974,14393.072497621288,1671629622.245,531,124344,70774
207975,14393.079982919973,1671629622.245,529,124398,70781
207975,14393.087468218659,1671629622.245,529,124398,70781
207976,14393.094953517344,1671629622.245,528,124383,70780
207976,14393.10243881603,1671629622.245,528,124383,70780
207977,14393.109924114715,1671629622.245,529,124309,70766
207977,14393.1174094134,1671629622.245,529,124309,70766
207978,14393.124894712086,1671629622.354,529,124285,70770
207978,14393.132380010771,1671629622.354,529,124285,70770
207979,14393.139865309457,1671629622.354,531,124271,70741
207979,14393.147350608142,1671629622.354,531,124271,70741
207980,14393.154835906827,1671629622.354,530,124251,70756
207980,14393.162321205513,1671629622.354,530,124251,70756
207981,14393.169806504198,1671629622.354,531,124309,70750
207981,14393.177291802884,1671629622.354,531,124309,70750
207982,14393.195083542052,1671629622.354,529,124226,70730
207982,14393.203492097797,1671629622.354,529,124226,70730
207983,14393.211900653541,1671629622.354,531,124140,70699
207983,14393.220309209286,1671629622.354,531,124140,70699
207984,14393.22871776503,1671629622.442,529,124192,70717
207984,14393.237126320775,1671629622.442,529,124192,70717
207985,14393.24553487652,1671629622.442,530,124180,70721
207985,14393.253943432264,1671629622.442,530,124180,70721
207986,14393.262351988009,1671629622.442,529,124108,70714
207986,14393.270760543754,1671629622.442,529,124108,70714
207987,14393.279169099498,1671629622.442,531,124144,70697
207987,14393.287577655243,1671629622.442,531,124144,70697
207988,14393.295986210987,1671629622.442,530,124176,70717
207988,14393.304394766732,1671629622.442,530,124176,70717
207989,14393.312803322477,1671629622.442,530,124207,70695
207989,14393.321211878221,1671629622.442,530,124207,70695
207990,14393.329620433966,1671629622.527,527,124242,70698
207990,14393.33802898971,1671629622.527,527,124242,70698
207991,14393.346437545455,1671629622.527,529,124108,70671
207991,14393.3548461012,1671629622.527,529,124108,70671
207992,14393.346034494942,1671629622.527,528,124101,70680
207992,14393.352750275628,1671629622.527,528,124101,70680
207993,14393.359466056314,1671629622.527,529,124063,70676
207993,14393.366181837,1671629622.527,529,124063,70676
207994,14393.372897617686,1671629622.527,528,124087,70680
207994,14393.379613398372,1671629622.527,528,124087,70680
207995,14393.386329179059,1671629622.527,531,124006,70673
207995,14393.393044959745,1671629622.527,531,124006,70673
207996,14393.39976074043,1671629622.627,528,124056,70657
207996,14393.406476521117,1671629622.627,528,124056,70657
207997,14393.413192301803,1671629622.627,530,124022,70687
207997,14393.41990808249,1671629622.627,530,124022,70687
207998,14393.426623863175,1671629622.627,528,123998,70657
207998,14393.433339643861,1671629622.627,528,123998,70657
207999,14393.440055424548,1671629622.627,528,124064,70669
207999,14393.446771205234,1671629622.627,528,124064,70669
208000,14393.45348698592,1671629622.627,529,124022,70675
208000,14393.460202766606,1671629622.627,529,124022,70675
208001,14393.466918547292,1671629622.627,530,124066,70669
208001,14393.473634327978,1671629622.627,530,124066,70669
208002,14393.503729381451,1671629622.721,529,123978,70667
208002,14393.511512171557,1671629622.721,529,123978,70667
208003,14393.519294961663,1671629622.721,529,124060,70664
208003,14393.527077751769,1671629622.721,529,124060,70664
208004,14393.534860541875,1671629622.721,529,124027,70678
208004,14393.54264333198,1671629622.721,529,124027,70678
208005,14393.550426122087,1671629622.721,530,123971,70661
208005,14393.558208912193,1671629622.721,530,123971,70661
208006,14393.565991702299,1671629622.721,529,124059,70666
208006,14393.573774492404,1671629622.721,529,124059,70666
208007,14393.58155728251,1671629622.721,528,124081,70697
208007,14393.589340072616,1671629622.721,528,124081,70697
208008,14393.597122862722,1671629622.812,528,124079,70677
208008,14393.604905652828,1671629622.812,528,124079,70677
208009,14393.612688442934,1671629622.812,529,124069,70675
208009,14393.62047123304,1671629622.812,529,124069,70675
208010,14393.628254023146,1671629622.812,530,124048,70683
208010,14393.636036813252,1671629622.812,530,124048,70683
208011,14393.643819603358,1671629622.812,529,124039,70689
208011,14393.651602393464,1671629622.812,529,124039,70689
208012,14393.657997425244,1671629622.812,530,124125,70687
208012,14393.665122978364,1671629622.812,530,124125,70687
208013,14393.672248531484,1671629622.812,530,124060,70680
208013,14393.679374084604,1671629622.812,530,124060,70680
208014,14393.686499637724,1671629622.905,529,124128,70680
208014,14393.693625190845,1671629622.905,529,124128,70680
208015,14393.700750743965,1671629622.905,530,124126,70713
208015,14393.707876297085,1671629622.905,530,124126,70713
208016,14393.715001850205,1671629622.905,530,124059,70710
208016,14393.722127403325,1671629622.905,530,124059,70710
208017,14393.729252956446,1671629622.905,529,124113,70729
208017,14393.736378509566,1671629622.905,529,124113,70729
208018,14393.743504062686,1671629622.905,531,124081,70698
208018,14393.750629615806,1671629622.905,531,124081,70698
208019,14393.757755168926,1671629622.905,531,124084,70728
208019,14393.764880722047,1671629622.905,531,124084,70728
208020,14393.772006275167,1671629622.995,530,124153,70727
208020,14393.779131828287,1671629622.995,530,124153,70727
208021,14393.786257381407,1671629622.995,531,124117,70735
208021,14393.793382934527,1671629622.995,531,124117,70735
208022,14393.810962658521,1671629622.995,530,124119,70725
208022,14393.81808061724,1671629622.995,530,124119,70725
208023,14393.82519857596,1671629622.995,529,124157,70771
208023,14393.83231653468,1671629622.995,529,124157,70771
208024,14393.839434493399,1671629622.995,528,124105,70733
208024,14393.846552452118,1671629622.995,528,124105,70733
208025,14393.853670410837,1671629622.995,529,124137,70746
208025,14393.860788369557,1671629622.995,529,124137,70746
208026,14393.867906328276,1671629623.087,529,124211,70731
208026,14393.875024286996,1671629623.087,529,124211,70731
208027,14393.882142245715,1671629623.087,530,124173,70758
208027,14393.889260204434,1671629623.087,530,124173,70758
208028,14393.896378163154,1671629623.087,531,124200,70758
208028,14393.903496121873,1671629623.087,531,124200,70758
208029,14393.910614080592,1671629623.087,532,124150,70753
208029,14393.917732039312,1671629623.087,532,124150,70753
208030,14393.924849998031,1671629623.087,530,124151,70758
208030,14393.93196795675,1671629623.087,530,124151,70758
208031,14393.93908591547,1671629623.087,528,124217,70775
208031,14393.94620387419,1671629623.087,528,124217,70775
208032,14393.96296273899,1671629623.193,529,124278,70799
208032,14393.97011893876,1671629623.193,529,124278,70799
208033,14393.97727513853,1671629623.193,530,124194,70754
208033,14393.9844313383,1671629623.193,530,124194,70754
208034,14393.99158753807,1671629623.193,528,124208,70784
208034,14393.99874373784,1671629623.193,528,124208,70784
208035,14394.00589993761,1671629623.193,530,124183,70763
208035,14394.01305613738,1671629623.193,530,124183,70763
208036,14394.020212337151,1671629623.193,531,124206,70764
208036,14394.027368536921,1671629623.193,531,124206,70764
208037,14394.034524736691,1671629623.193,531,124224,70770
208037,14394.041680936461,1671629623.193,531,124224,70770
208038,14394.048837136232,1671629623.278,528,124153,70763
208038,14394.055993336002,1671629623.278,528,124153,70763
208039,14394.063149535772,1671629623.278,529,124079,70757
208039,14394.070305735542,1671629623.278,529,124079,70757
208040,14394.077461935312,1671629623.278,528,124189,70753
208040,14394.084618135083,1671629623.278,528,124189,70753
208041,14394.091774334853,1671629623.278,530,124031,70737
208041,14394.098930534623,1671629623.278,530,124031,70737
208042,14394.124883272429,1671629623.278,530,124061,70723
208042,14394.131613160294,1671629623.278,530,124061,70723
208043,14394.13834304816,1671629623.278,530,124041,70731
208043,14394.145072936026,1671629623.278,530,124041,70731
208044,14394.151802823892,1671629623.373,531,123926,70715
208044,14394.158532711757,1671629623.373,531,123926,70715
208045,14394.165262599623,1671629623.373,530,124009,70729
208045,14394.171992487489,1671629623.373,530,124009,70729
208046,14394.178722375354,1671629623.373,530,123958,70700
208046,14394.18545226322,1671629623.373,530,123958,70700
208047,14394.192182151086,1671629623.373,530,123935,70712
208047,14394.198912038952,1671629623.373,530,123935,70712
208048,14394.205641926817,1671629623.373,528,123913,70702
208048,14394.212371814683,1671629623.373,528,123913,70702
208049,14394.219101702549,1671629623.373,530,123920,70709
208049,14394.225831590415,1671629623.373,530,123920,70709
208050,14394.23256147828,1671629623.473,531,123948,70671
208050,14394.239291366146,1671629623.473,531,123948,70671
208051,14394.246021254012,1671629623.473,533,123850,70683
208051,14394.252751141878,1671629623.473,533,123850,70683
208052,14394.282928623983,1671629623.473,530,123910,70687
208052,14394.290608889974,1671629623.473,530,123910,70687
208053,14394.298289155966,1671629623.473,530,123934,70696
208053,14394.305969421957,1671629623.473,530,123934,70696
208054,14394.313649687949,1671629623.473,529,123861,70665
208054,14394.32132995394,1671629623.473,529,123861,70665
208055,14394.329010219932,1671629623.473,530,123878,70669
208055,14394.336690485923,1671629623.473,530,123878,70669
208056,14394.344370751915,1671629623.558,530,123924,70683
208056,14394.352051017906,1671629623.558,530,123924,70683
208057,14394.359731283897,1671629623.558,530,123817,70649
208057,14394.367411549889,1671629623.558,530,123817,70649
208058,14394.37509181588,1671629623.558,531,123834,70654
208058,14394.382772081872,1671629623.558,531,123834,70654
208059,14394.390452347863,1671629623.558,530,123891,70661
208059,14394.398132613855,1671629623.558,530,123891,70661
208060,14394.405812879846,1671629623.558,530,123732,70650
208060,14394.413493145837,1671629623.558,530,123732,70650
208061,14394.421173411829,1671629623.558,530,123781,70637
208061,14394.42885367782,1671629623.558,530,123781,70637
208062,14394.433344191953,1671629623.662,530,123749,70639
208062,14394.440020089569,1671629623.662,530,123749,70639
208063,14394.446695987184,1671629623.662,530,123752,70641
208063,14394.4533718848,1671629623.662,530,123752,70641
208064,14394.460047782415,1671629623.662,529,123824,70635
208064,14394.46672368003,1671629623.662,529,123824,70635
208065,14394.473399577646,1671629623.662,529,123737,70629
208065,14394.480075475261,1671629623.662,529,123737,70629
208066,14394.486751372877,1671629623.662,531,123656,70624
208066,14394.493427270492,1671629623.662,531,123656,70624
208067,14394.500103168108,1671629623.662,531,123745,70632
208067,14394.506779065723,1671629623.662,531,123745,70632
208068,14394.513454963339,1671629623.745,531,123684,70619
208068,14394.520130860954,1671629623.745,531,123684,70619
208069,14394.52680675857,1671629623.745,531,123676,70631
208069,14394.533482656185,1671629623.745,531,123676,70631
208070,14394.5401585538,1671629623.745,530,123697,70630
208070,14394.546834451416,1671629623.745,530,123697,70630
208071,14394.553510349031,1671629623.745,530,123731,70618
208071,14394.560186246646,1671629623.745,530,123731,70618
208072,14394.592926837466,1671629623.745,529,123741,70651
208072,14394.599523898847,1671629623.745,529,123741,70651
208073,14394.606120960229,1671629623.745,530,123727,70641
208073,14394.61271802161,1671629623.745,530,123727,70641
208074,14394.619315082991,1671629623.845,530,123805,70655
208074,14394.625912144373,1671629623.845,530,123805,70655
208075,14394.632509205754,1671629623.845,530,123782,70656
208075,14394.639106267136,1671629623.845,530,123782,70656
208076,14394.645703328517,1671629623.845,530,123803,70655
208076,14394.652300389898,1671629623.845,530,123803,70655
208077,14394.65889745128,1671629623.845,530,123814,70656
208077,14394.665494512661,1671629623.845,530,123814,70656
208078,14394.672091574042,1671629623.845,530,123830,70675
208078,14394.678688635424,1671629623.845,530,123830,70675
208079,14394.685285696805,1671629623.845,529,123770,70637
208079,14394.691882758187,1671629623.845,529,123770,70637
208080,14394.698479819568,1671629623.934,529,123800,70638
208080,14394.70507688095,1671629623.934,529,123800,70638
208081,14394.71167394233,1671629623.934,530,123801,70644
208081,14394.718271003712,1671629623.934,530,123801,70644
208082,14394.750641932342,1671629623.934,531,123720,70657
208082,14394.757843394078,1671629623.934,531,123720,70657
208083,14394.765044855814,1671629623.934,530,123740,70665
208083,14394.77224631755,1671629623.934,530,123740,70665
208084,14394.779447779287,1671629623.934,531,123851,70665
208084,14394.786649241023,1671629623.934,531,123851,70665
208085,14394.79385070276,1671629623.934,532,123776,70655
208085,14394.801052164496,1671629623.934,532,123776,70655
208086,14394.808253626232,1671629624.027,529,123829,70704
208086,14394.815455087968,1671629624.027,529,123829,70704
208087,14394.822656549704,1671629624.027,529,123746,70687
208087,14394.82985801144,1671629624.027,529,123746,70687
208088,14394.837059473177,1671629624.027,529,123803,70698
208088,14394.844260934913,1671629624.027,529,123803,70698
208089,14394.85146239665,1671629624.027,530,123796,70667
208089,14394.858663858386,1671629624.027,530,123796,70667
208090,14394.865865320122,1671629624.027,531,123777,70703
208090,14394.873066781858,1671629624.027,531,123777,70703
208091,14394.880268243594,1671629624.027,532,123832,70690
208091,14394.88746970533,1671629624.027,532,123832,70690
208092,14394.903422784168,1671629624.116,531,123878,70715
208092,14394.910713414083,1671629624.116,531,123878,70715
208093,14394.918004043999,1671629624.116,531,123814,70687
208093,14394.925294673914,1671629624.116,531,123814,70687
208094,14394.93258530383,1671629624.116,529,123856,70723
208094,14394.939875933745,1671629624.116,529,123856,70723
208095,14394.947166563661,1671629624.116,528,123912,70724
208095,14394.954457193577,1671629624.116,528,123912,70724
208096,14394.961747823492,1671629624.116,529,123860,70743
208096,14394.969038453408,1671629624.116,529,123860,70743
208097,14394.976329083323,1671629624.116,531,123925,70725
208097,14394.983619713239,1671629624.116,531,123925,70725
208098,14394.990910343155,1671629624.221,531,123931,70746
208098,14394.99820097307,1671629624.221,531,123931,70746
208099,14395.005491602986,1671629624.221,531,123917,70719
208099,14395.012782232901,1671629624.221,531,123917,70719
208100,14395.020072862817,1671629624.221,531,123832,70722
208100,14395.027363492733,1671629624.221,531,123832,70722
208101,14395.034654122648,1671629624.221,531,123913,70723
208101,14395.041944752564,1671629624.221,531,123913,70723
208102,14395.063401163436,1671629624.221,529,123878,70717
208102,14395.071549761156,1671629624.221,529,123878,70717
208103,14395.079698358877,1671629624.221,529,123790,70695
208103,14395.087846956598,1671629624.221,529,123790,70695
208104,14395.095995554319,1671629624.325,529,123803,70686
208104,14395.10414415204,1671629624.325,529,123803,70686
208105,14395.11229274976,1671629624.325,531,123757,70687
208105,14395.12044134748,1671629624.325,531,123757,70687
208106,14395.128589945201,1671629624.325,530,123710,70672
208106,14395.136738542922,1671629624.325,530,123710,70672
208107,14395.144887140643,1671629624.325,530,123831,70709
208107,14395.153035738364,1671629624.325,530,123831,70709
208108,14395.161184336084,1671629624.325,531,123660,70684
208108,14395.169332933805,1671629624.325,531,123660,70684
208109,14395.177481531526,1671629624.325,530,123736,70685
208109,14395.185630129246,1671629624.325,530,123736,70685
208110,14395.193778726967,1671629624.401,529,123643,70646
208110,14395.201927324688,1671629624.401,529,123643,70646
208111,14395.210075922409,1671629624.401,529,123697,70642
208111,14395.21822452013,1671629624.401,529,123697,70642
208112,14395.226020564078,1671629624.401,528,123678,70655
208112,14395.232622436008,1671629624.401,528,123678,70655
208113,14395.239224307938,1671629624.401,530,123569,70665
208113,14395.245826179867,1671629624.401,530,123569,70665
208114,14395.252428051797,1671629624.401,532,123696,70649
208114,14395.259029923727,1671629624.401,532,123696,70649
208115,14395.265631795657,1671629624.401,529,123662,70667
208115,14395.272233667587,1671629624.401,529,123662,70667
208116,14395.278835539517,1671629624.498,530,123522,70635
208116,14395.285437411447,1671629624.498,530,123522,70635
208117,14395.292039283377,1671629624.498,530,123647,70660
208117,14395.298641155307,1671629624.498,530,123647,70660
208118,14395.305243027236,1671629624.498,530,123604,70650
208118,14395.311844899166,1671629624.498,530,123604,70650
208119,14395.318446771096,1671629624.498,530,123546,70634
208119,14395.325048643026,1671629624.498,530,123546,70634
208120,14395.331650514956,1671629624.498,530,123582,70646
208120,14395.338252386886,1671629624.498,530,123582,70646
208121,14395.344854258816,1671629624.498,529,123540,70632
208121,14395.351456130746,1671629624.498,529,123540,70632
208122,14395.374080157442,1671629624.599,532,123547,70624
208122,14395.38158798459,1671629624.599,532,123547,70624
208123,14395.389095811737,1671629624.599,531,123564,70611
208123,14395.396603638885,1671629624.599,531,123564,70611
208124,14395.404111466032,1671629624.599,530,123504,70645
208124,14395.41161929318,1671629624.599,530,123504,70645
208125,14395.419127120327,1671629624.599,529,123563,70639
208125,14395.426634947475,1671629624.599,529,123563,70639
208126,14395.434142774622,1671629624.599,528,123553,70626
208126,14395.44165060177,1671629624.599,528,123553,70626
208127,14395.449158428917,1671629624.599,529,123543,70626
208127,14395.456666256065,1671629624.599,529,123543,70626
208128,14395.464174083212,1671629624.686,529,123592,70617
208128,14395.47168191036,1671629624.686,529,123592,70617
208129,14395.479189737507,1671629624.686,528,123556,70626
208129,14395.486697564655,1671629624.686,528,123556,70626
208130,14395.494205391802,1671629624.686,530,123485,70630
208130,14395.50171321895,1671629624.686,530,123485,70630
208131,14395.509221046097,1671629624.686,530,123514,70611
208131,14395.516728873245,1671629624.686,530,123514,70611
208132,14395.532397789375,1671629624.686,529,123477,70618
208132,14395.539237191468,1671629624.686,529,123477,70618
208133,14395.54607659356,1671629624.686,529,123474,70618
208133,14395.552915995653,1671629624.686,529,123474,70618
208134,14395.559755397746,1671629624.781,530,123488,70603
208134,14395.566594799839,1671629624.781,530,123488,70603
208135,14395.573434201931,1671629624.781,528,123544,70639
208135,14395.580273604024,1671629624.781,528,123544,70639
208136,14395.587113006117,1671629624.781,529,123531,70635
208136,14395.59395240821,1671629624.781,529,123531,70635
208137,14395.600791810302,1671629624.781,531,123604,70648
208137,14395.607631212395,1671629624.781,531,123604,70648
208138,14395.614470614488,1671629624.781,530,123618,70645
208138,14395.62131001658,1671629624.781,530,123618,70645
208139,14395.628149418673,1671629624.781,530,123527,70627
208139,14395.634988820766,1671629624.781,530,123527,70627
208140,14395.641828222859,1671629624.873,532,123526,70622
208140,14395.648667624951,1671629624.873,532,123526,70622
208141,14395.655507027044,1671629624.873,529,123556,70632
208141,14395.662346429137,1671629624.873,529,123556,70632
208142,14395.687719711153,1671629624.873,528,123594,70650
208142,14395.694983080519,1671629624.873,528,123594,70650
208143,14395.702246449884,1671629624.873,528,123631,70665
208143,14395.70950981925,1671629624.873,528,123631,70665
208144,14395.716773188615,1671629624.873,530,123606,70646
208144,14395.72403655798,1671629624.873,530,123606,70646
208145,14395.731299927345,1671629624.873,531,123630,70671
208145,14395.73856329671,1671629624.873,531,123630,70671
208146,14395.745826666076,1671629624.972,530,123610,70665
208146,14395.753090035441,1671629624.972,530,123610,70665
208147,14395.760353404807,1671629624.972,531,123595,70645
208147,14395.767616774172,1671629624.972,531,123595,70645
208148,14395.774880143537,1671629624.972,528,123587,70666
208148,14395.782143512903,1671629624.972,528,123587,70666
208149,14395.789406882268,1671629624.972,528,123619,70676
208149,14395.796670251633,1671629624.972,528,123619,70676
208150,14395.803933620999,1671629624.972,527,123612,70683
208150,14395.811196990364,1671629624.972,527,123612,70683
208151,14395.81846035973,1671629624.972,528,123658,70685
208151,14395.825723729095,1671629624.972,528,123658,70685
208152,14395.848870594566,1671629625.063,531,123651,70708
208152,14395.856615433866,1671629625.063,531,123651,70708
208153,14395.864360273166,1671629625.063,531,123701,70712
208153,14395.872105112467,1671629625.063,531,123701,70712
208154,14395.879849951767,1671629625.063,532,123666,70686
208154,14395.887594791067,1671629625.063,532,123666,70686
208155,14395.895339630368,1671629625.063,530,123661,70689
208155,14395.903084469668,1671629625.063,530,123661,70689
208156,14395.910829308968,1671629625.063,532,123642,70697
208156,14395.918574148269,1671629625.063,532,123642,70697
208157,14395.92631898757,1671629625.063,530,123707,70701
208157,14395.93406382687,1671629625.063,530,123707,70701
208158,14395.94180866617,1671629625.161,530,123660,70712
208158,14395.94955350547,1671629625.161,530,123660,70712
208159,14395.95729834477,1671629625.161,528,123743,70710
208159,14395.965043184071,1671629625.161,528,123743,70710
208160,14395.972788023371,1671629625.161,529,123727,70708
208160,14395.980532862672,1671629625.161,529,123727,70708
208161,14395.988277701972,1671629625.161,530,123755,70739
208161,14395.996022541272,1671629625.161,530,123755,70739
208162,14396.004739097152,1671629625.161,531,123760,70737
208162,14396.012358282991,1671629625.161,531,123760,70737
208163,14396.01997746883,1671629625.161,530,123785,70749
208163,14396.027596654669,1671629625.161,530,123785,70749
208164,14396.035215840508,1671629625.245,531,123715,70752
208164,14396.042835026346,1671629625.245,531,123715,70752
208165,14396.050454212185,1671629625.245,529,123713,70735
208165,14396.058073398024,1671629625.245,529,123713,70735
208166,14396.065692583863,1671629625.245,530,123779,70761
208166,14396.073311769702,1671629625.245,530,123779,70761
208167,14396.08093095554,1671629625.245,529,123803,70762
208167,14396.08855014138,1671629625.245,529,123803,70762
208168,14396.096169327218,1671629625.245,530,123775,70740
208168,14396.103788513057,1671629625.245,530,123775,70740
208169,14396.111407698896,1671629625.245,530,123787,70727
208169,14396.119026884735,1671629625.245,530,123787,70727
208170,14396.126646070574,1671629625.345,531,123700,70710
208170,14396.134265256413,1671629625.345,531,123700,70710
208171,14396.141884442251,1671629625.345,530,123702,70691
208171,14396.14950362809,1671629625.345,530,123702,70691
208172,14396.15490815517,1671629625.345,530,123607,70684
208172,14396.162355876491,1671629625.345,530,123607,70684
208173,14396.169803597813,1671629625.345,530,123636,70704
208173,14396.177251319135,1671629625.345,530,123636,70704
208174,14396.184699040457,1671629625.345,529,123668,70711
208174,14396.19214676178,1671629625.345,529,123668,70711
208175,14396.199594483101,1671629625.345,530,123627,70695
208175,14396.207042204423,1671629625.345,530,123627,70695
208176,14396.214489925746,1671629625.435,529,123579,70691
208176,14396.221937647068,1671629625.435,529,123579,70691
208177,14396.22938536839,1671629625.435,530,123578,70667
208177,14396.236833089712,1671629625.435,530,123578,70667
208178,14396.244280811034,1671629625.435,532,123578,70702
208178,14396.251728532356,1671629625.435,532,123578,70702
208179,14396.259176253678,1671629625.435,530,123609,70680
208179,14396.266623975,1671629625.435,530,123609,70680
208180,14396.274071696322,1671629625.435,530,123513,70647
208180,14396.281519417644,1671629625.435,530,123513,70647
208181,14396.288967138966,1671629625.435,530,123479,70649
208181,14396.296414860288,1671629625.435,530,123479,70649
208182,14396.310819645541,1671629625.523,529,123422,70644
208182,14396.317837438022,1671629625.523,529,123422,70644
208183,14396.324855230503,1671629625.523,529,123493,70664
208183,14396.331873022984,1671629625.523,529,123493,70664
208184,14396.338890815465,1671629625.523,529,123377,70653
208184,14396.345908607946,1671629625.523,529,123377,70653
208185,14396.352926400426,1671629625.523,531,123428,70662
208185,14396.359944192907,1671629625.523,531,123428,70662
208186,14396.366961985388,1671629625.523,530,123437,70638
208186,14396.373979777869,1671629625.523,530,123437,70638
208187,14396.38099757035,1671629625.523,532,123437,70629
208187,14396.38801536283,1671629625.523,532,123437,70629
208188,14396.395033155311,1671629625.623,531,123397,70628
208188,14396.402050947792,1671629625.623,531,123397,70628
208189,14396.409068740273,1671629625.623,529,123380,70628
208189,14396.416086532754,1671629625.623,529,123380,70628
208190,14396.423104325235,1671629625.623,531,123413,70640
208190,14396.430122117716,1671629625.623,531,123413,70640
208191,14396.437139910196,1671629625.623,530,123373,70628
208191,14396.444157702677,1671629625.623,530,123373,70628
208192,14396.466613327866,1671629625.623,530,123317,70617
208192,14396.474371211694,1671629625.623,530,123317,70617
208193,14396.482129095522,1671629625.623,531,123373,70629
208193,14396.48988697935,1671629625.623,531,123373,70629
208194,14396.497644863179,1671629625.726,531,123393,70623
208194,14396.505402747007,1671629625.726,531,123393,70623
208195,14396.513160630835,1671629625.726,529,123399,70636
208195,14396.520918514663,1671629625.726,529,123399,70636
208196,14396.528676398491,1671629625.726,531,123393,70621
208196,14396.53643428232,1671629625.726,531,123393,70621
208197,14396.544192166148,1671629625.726,529,123369,70615
208197,14396.551950049976,1671629625.726,529,123369,70615
208198,14396.559707933804,1671629625.726,529,123379,70628
208198,14396.567465817632,1671629625.726,529,123379,70628
208199,14396.57522370146,1671629625.726,530,123398,70628
208199,14396.582981585289,1671629625.726,530,123398,70628
208200,14396.590739469117,1671629625.808,529,123450,70632
208200,14396.598497352945,1671629625.808,529,123450,70632
208201,14396.606255236773,1671629625.808,531,123318,70618
208201,14396.614013120601,1671629625.808,531,123318,70618
208202,14396.629264797657,1671629625.808,530,123339,70621
208202,14396.636138043848,1671629625.808,530,123339,70621
208203,14396.64301129004,1671629625.808,530,123401,70627
208203,14396.649884536231,1671629625.808,530,123401,70627
208204,14396.656757782423,1671629625.808,531,123394,70617
208204,14396.663631028614,1671629625.808,531,123394,70617
208205,14396.670504274805,1671629625.808,530,123342,70628
208205,14396.677377520997,1671629625.808,530,123342,70628
208206,14396.684250767188,1671629625.904,530,123294,70616
208206,14396.69112401338,1671629625.904,530,123294,70616
208207,14396.697997259571,1671629625.904,528,123369,70626
208207,14396.704870505762,1671629625.904,528,123369,70626
208208,14396.711743751954,1671629625.904,530,123417,70634
208208,14396.718616998145,1671629625.904,530,123417,70634
208209,14396.725490244336,1671629625.904,530,123460,70646
208209,14396.732363490528,1671629625.904,530,123460,70646
208210,14396.73923673672,1671629625.904,529,123421,70638
208210,14396.74610998291,1671629625.904,529,123421,70638
208211,14396.752983229102,1671629625.904,531,123369,70626
208211,14396.759856475293,1671629625.904,531,123369,70626
208212,14396.780227585756,1671629625.995,530,123409,70626
208212,14396.787716033014,1671629625.995,530,123409,70626
208213,14396.795204480271,1671629625.995,529,123412,70627
208213,14396.80269292753,1671629625.995,529,123412,70627
208214,14396.810181374787,1671629625.995,528,123483,70646
208214,14396.817669822045,1671629625.995,528,123483,70646
208215,14396.825158269303,1671629625.995,528,123401,70633
208215,14396.83264671656,1671629625.995,528,123401,70633
208216,14396.840135163819,1671629625.995,530,123513,70657
208216,14396.847623611076,1671629625.995,530,123513,70657
208217,14396.855112058334,1671629625.995,531,123435,70636
208217,14396.862600505592,1671629625.995,531,123435,70636
208218,14396.87008895285,1671629626.091,531,123468,70658
208218,14396.877577400108,1671629626.091,531,123468,70658
208219,14396.885065847366,1671629626.091,531,123484,70656
208219,14396.892554294624,1671629626.091,531,123484,70656
208220,14396.900042741881,1671629626.091,530,123450,70640
208220,14396.90753118914,1671629626.091,530,123450,70640
208221,14396.915019636397,1671629626.091,530,123494,70665
208221,14396.922508083655,1671629626.091,530,123494,70665
208222,14396.935364727395,1671629626.091,529,123570,70691
208222,14396.942862975664,1671629626.091,529,123570,70691
208223,14396.950361223933,1671629626.091,530,123481,70657
208223,14396.957859472202,1671629626.091,530,123481,70657
208224,14396.965357720472,1671629626.186,530,123543,70688
208224,14396.972855968741,1671629626.186,530,123543,70688
208225,14396.98035421701,1671629626.186,531,123521,70690
208225,14396.98785246528,1671629626.186,531,123521,70690
208226,14396.995350713549,1671629626.186,531,123609,70707
208226,14397.002848961818,1671629626.186,531,123609,70707
208227,14397.010347210087,1671629626.186,532,123537,70689
208227,14397.017845458357,1671629626.186,532,123537,70689
208228,14397.025343706626,1671629626.186,530,123543,70678
208228,14397.032841954895,1671629626.186,530,123543,70678
208229,14397.040340203164,1671629626.186,531,123540,70695
208229,14397.047838451434,1671629626.186,531,123540,70695
208230,14397.055336699703,1671629626.275,530,123461,70679
208230,14397.062834947972,1671629626.275,530,123461,70679
208231,14397.070333196241,1671629626.275,530,123639,70716
208231,14397.07783144451,1671629626.275,530,123639,70716
208232,14397.091866546214,1671629626.275,529,123566,70714
208232,14397.098944972022,1671629626.275,529,123566,70714
208233,14397.10602339783,1671629626.275,529,123651,70702
208233,14397.113101823637,1671629626.275,529,123651,70702
208234,14397.120180249445,1671629626.275,531,123640,70726
208234,14397.127258675253,1671629626.275,531,123640,70726
208235,14397.13433710106,1671629626.275,531,123664,70738
208235,14397.141415526869,1671629626.275,531,123664,70738
208236,14397.148493952676,1671629626.369,532,123631,70711
208236,14397.155572378484,1671629626.369,532,123631,70711
208237,14397.162650804292,1671629626.369,530,123647,70725
208237,14397.1697292301,1671629626.369,530,123647,70725
208238,14397.176807655907,1671629626.369,530,123633,70720
208238,14397.183886081715,1671629626.369,530,123633,70720
208239,14397.190964507523,1671629626.369,530,123612,70721
208239,14397.19804293333,1671629626.369,530,123612,70721
208240,14397.205121359139,1671629626.369,530,123637,70697
208240,14397.212199784946,1671629626.369,530,123637,70697
208241,14397.219278210754,1671629626.369,532,123571,70698
208241,14397.226356636562,1671629626.369,532,123571,70698
208242,14397.244871367557,1671629626.462,531,123507,70705
208242,14397.252188148443,1671629626.462,531,123507,70705
208243,14397.259504929329,1671629626.462,530,123495,70668
208243,14397.266821710215,1671629626.462,530,123495,70668
208244,14397.2741384911,1671629626.462,529,123571,70683
208244,14397.281455271986,1671629626.462,529,123571,70683
208245,14397.288772052872,1671629626.462,528,123491,70670
208245,14397.296088833758,1671629626.462,528,123491,70670
208246,14397.303405614644,1671629626.462,528,123471,70673
208246,14397.31072239553,1671629626.462,528,123471,70673
208247,14397.318039176416,1671629626.462,528,123443,70672
208247,14397.325355957302,1671629626.462,528,123443,70672
208248,14397.332672738188,1671629626.566,531,123448,70666
208248,14397.339989519074,1671629626.566,531,123448,70666
208249,14397.34730629996,1671629626.566,530,123435,70662
208249,14397.354623080846,1671629626.566,530,123435,70662
208250,14397.361939861732,1671629626.566,530,123418,70661
208250,14397.369256642618,1671629626.566,530,123418,70661
208251,14397.376573423504,1671629626.566,531,123352,70643
208251,14397.38389020439,1671629626.566,531,123352,70643
208252,14397.408427715074,1671629626.566,531,123428,70663
208252,14397.4164462474,1671629626.566,531,123428,70663
208253,14397.424464779726,1671629626.566,530,123365,70654
208253,14397.432483312052,1671629626.566,530,123365,70654
208254,14397.440501844378,1671629626.653,528,123441,70678
208254,14397.448520376704,1671629626.653,528,123441,70678
208255,14397.45653890903,1671629626.653,529,123389,70651
208255,14397.464557441355,1671629626.653,529,123389,70651
208256,14397.472575973681,1671629626.653,531,123357,70647
208256,14397.480594506007,1671629626.653,531,123357,70647
208257,14397.488613038333,1671629626.653,529,123374,70646
208257,14397.496631570659,1671629626.653,529,123374,70646
208258,14397.504650102985,1671629626.653,529,123402,70645
208258,14397.51266863531,1671629626.653,529,123402,70645
208259,14397.520687167636,1671629626.653,530,123331,70624
208259,14397.528705699962,1671629626.653,530,123331,70624
208260,14397.536724232288,1671629626.743,528,123290,70621
208260,14397.544742764614,1671629626.743,528,123290,70621
208261,14397.55276129694,1671629626.743,529,123355,70635
208261,14397.560779829266,1671629626.743,529,123355,70635
208262,14397.558793777393,1671629626.743,529,123373,70632
208262,14397.56574862256,1671629626.743,529,123373,70632
208263,14397.572703467726,1671629626.743,529,123392,70634
208263,14397.579658312892,1671629626.743,529,123392,70634
208264,14397.586613158059,1671629626.743,530,123312,70625
208264,14397.593568003225,1671629626.743,530,123312,70625
208265,14397.600522848392,1671629626.743,531,123327,70623
208265,14397.607477693558,1671629626.743,531,123327,70623
208266,14397.614432538725,1671629626.845,529,123280,70612
208266,14397.621387383891,1671629626.845,529,123280,70612
208267,14397.628342229058,1671629626.845,529,123220,70610
208267,14397.635297074225,1671629626.845,529,123220,70610
208268,14397.642251919391,1671629626.845,530,123279,70625
208268,14397.649206764558,1671629626.845,530,123279,70625
208269,14397.656161609724,1671629626.845,528,123304,70623
208269,14397.66311645489,1671629626.845,528,123304,70623
208270,14397.670071300057,1671629626.845,529,123243,70608
208270,14397.677026145224,1671629626.845,529,123243,70608
208271,14397.68398099039,1671629626.845,529,123249,70613
208271,14397.690935835557,1671629626.845,529,123249,70613
208272,14397.721944912642,1671629626.934,531,123285,70612
208272,14397.72990818684,1671629626.934,531,123285,70612
208273,14397.737871461039,1671629626.934,532,123366,70621
208273,14397.745834735237,1671629626.934,532,123366,70621
208274,14397.753798009435,1671629626.934,532,123367,70643
208274,14397.761761283633,1671629626.934,532,123367,70643
208275,14397.769724557831,1671629626.934,531,123367,70614
208275,14397.77768783203,1671629626.934,531,123367,70614
208276,14397.785651106227,1671629626.934,529,123336,70635
208276,14397.793614380425,1671629626.934,529,123336,70635
208277,14397.801577654624,1671629626.934,529,123348,70606
208277,14397.809540928822,1671629626.934,529,123348,70606
208278,14397.81750420302,1671629627.025,530,123315,70620
208278,14397.825467477218,1671629627.025,530,123315,70620
208279,14397.833430751416,1671629627.025,529,123321,70627
208279,14397.841394025614,1671629627.025,529,123321,70627
208280,14397.849357299812,1671629627.025,529,123381,70617
208280,14397.85732057401,1671629627.025,529,123381,70617
208281,14397.865283848208,1671629627.025,531,123363,70628
208281,14397.873247122407,1671629627.025,531,123363,70628
208282,14397.87089861045,1671629627.025,528,123382,70627
208282,14397.878054627901,1671629627.025,528,123382,70627
208283,14397.885210645352,1671629627.025,532,123306,70606
208283,14397.892366662803,1671629627.025,532,123306,70606
208284,14397.899522680254,1671629627.124,530,123384,70640
208284,14397.906678697706,1671629627.124,530,123384,70640
208285,14397.913834715157,1671629627.124,529,123378,70622
208285,14397.920990732608,1671629627.124,529,123378,70622
208286,14397.928146750059,1671629627.124,530,123343,70627
208286,14397.93530276751,1671629627.124,530,123343,70627
208287,14397.94245878496,1671629627.124,531,123366,70605
208287,14397.949614802412,1671629627.124,531,123366,70605
208288,14397.956770819863,1671629627.124,532,123382,70628
208288,14397.963926837314,1671629627.124,532,123382,70628
208289,14397.971082854765,1671629627.124,531,123354,70637
208289,14397.978238872216,1671629627.124,531,123354,70637
208290,14397.985394889667,1671629627.219,531,123413,70659
208290,14397.992550907118,1671629627.219,531,123413,70659
208291,14397.99970692457,1671629627.219,531,123464,70646
208291,14398.00686294202,1671629627.219,531,123464,70646
208292,14398.031967242687,1671629627.219,530,123390,70621
208292,14398.039490763837,1671629627.219,530,123390,70621
208293,14398.047014284986,1671629627.219,528,123449,70670
208293,14398.054537806136,1671629627.219,528,123449,70670
208294,14398.062061327286,1671629627.219,530,123473,70663
208294,14398.069584848436,1671629627.219,530,123473,70663
208295,14398.077108369585,1671629627.219,529,123449,70664
208295,14398.084631890735,1671629627.219,529,123449,70664
208296,14398.092155411885,1671629627.313,530,123418,70638
208296,14398.099678933035,1671629627.313,530,123418,70638
208297,14398.107202454185,1671629627.313,531,123498,70652
208297,14398.114725975334,1671629627.313,531,123498,70652
208298,14398.122249496484,1671629627.313,529,123416,70669
208298,14398.129773017634,1671629627.313,529,123416,70669
208299,14398.137296538784,1671629627.313,532,123479,70644
208299,14398.144820059933,1671629627.313,532,123479,70644
208300,14398.152343581083,1671629627.313,531,123456,70673
208300,14398.159867102233,1671629627.313,531,123456,70673
208301,14398.167390623383,1671629627.313,530,123398,70625
208301,14398.174914144533,1671629627.313,530,123398,70625
208302,14398.189560731755,1671629627.399,529,123464,70620
208302,14398.196916583627,1671629627.399,529,123464,70620
208303,14398.2042724355,1671629627.399,530,123356,70608
208303,14398.211628287372,1671629627.399,530,123356,70608
208304,14398.218984139245,1671629627.399,530,123319,70612
208304,14398.226339991117,1671629627.399,530,123319,70612
208305,14398.23369584299,1671629627.399,530,123333,70598
208305,14398.241051694862,1671629627.399,530,123333,70598
208306,14398.248407546735,1671629627.399,530,123395,70640
208306,14398.255763398607,1671629627.399,530,123395,70640
208307,14398.26311925048,1671629627.399,529,123346,70621
208307,14398.270475102352,1671629627.399,529,123346,70621
208308,14398.277830954225,1671629627.495,531,123309,70588
208308,14398.285186806097,1671629627.495,531,123309,70588
208309,14398.29254265797,1671629627.495,527,123318,70626
208309,14398.299898509842,1671629627.495,527,123318,70626
208310,14398.307254361715,1671629627.495,529,123334,70596
208310,14398.314610213587,1671629627.495,529,123334,70596
208311,14398.32196606546,1671629627.495,527,123327,70621
208311,14398.329321917332,1671629627.495,527,123327,70621
208312,14398.339544728346,1671629627.495,530,123262,70607
208312,14398.346988888901,1671629627.495,530,123262,70607
208313,14398.354433049457,1671629627.495,532,123266,70591
208313,14398.361877210013,1671629627.495,532,123266,70591
208314,14398.369321370568,1671629627.601,529,123275,70617
208314,14398.376765531124,1671629627.601,529,123275,70617
208315,14398.38420969168,1671629627.601,530,123273,70608
208315,14398.391653852235,1671629627.601,530,123273,70608
208316,14398.399098012791,1671629627.601,530,123253,70598
208316,14398.406542173347,1671629627.601,530,123253,70598
208317,14398.413986333902,1671629627.601,529,123165,70580
208317,14398.421430494458,1671629627.601,529,123165,70580
208318,14398.428874655014,1671629627.601,530,123249,70582
208318,14398.43631881557,1671629627.601,530,123249,70582
208319,14398.443762976125,1671629627.601,529,123242,70602
208319,14398.45120713668,1671629627.601,529,123242,70602
208320,14398.458651297236,1671629627.676,530,123263,70588
208320,14398.466095457792,1671629627.676,530,123263,70588
208321,14398.473539618348,1671629627.676,531,123163,70579
208321,14398.480983778903,1671629627.676,531,123163,70579
208322,14398.501987135356,1671629627.676,531,123195,70561
208322,14398.508552096126,1671629627.676,531,123195,70561
208323,14398.515117056895,1671629627.676,530,123197,70569
208323,14398.521682017665,1671629627.676,530,123197,70569
208324,14398.528246978434,1671629627.676,529,123179,70562
208324,14398.534811939204,1671629627.676,529,123179,70562
208325,14398.541376899973,1671629627.676,529,123190,70571
208325,14398.547941860743,1671629627.676,529,123190,70571
208326,14398.554506821512,1671629627.767,527,123125,70582
208326,14398.561071782282,1671629627.767,527,123125,70582
208327,14398.567636743051,1671629627.767,530,123197,70562
208327,14398.574201703821,1671629627.767,530,123197,70562
208328,14398.58076666459,1671629627.767,531,123171,70566
208328,14398.58733162536,1671629627.767,531,123171,70566
208329,14398.59389658613,1671629627.767,531,123215,70567
208329,14398.6004615469,1671629627.767,531,123215,70567
208330,14398.607026507669,1671629627.767,530,123134,70583
208330,14398.613591468438,1671629627.767,530,123134,70583
208331,14398.620156429208,1671629627.767,531,123193,70567
208331,14398.626721389977,1671629627.767,531,123193,70567
208332,14398.643363037152,1671629627.86,528,123188,70538
208332,14398.650483031124,1671629627.86,528,123188,70538
208333,14398.657603025096,1671629627.86,529,123251,70573
208333,14398.664723019068,1671629627.86,529,123251,70573
208334,14398.67184301304,1671629627.86,530,123127,70581
208334,14398.678963007012,1671629627.86,530,123127,70581
208335,14398.686083000985,1671629627.86,529,123176,70551
208335,14398.693202994957,1671629627.86,529,123176,70551
208336,14398.700322988929,1671629627.86,530,123219,70582
208336,14398.7074429829,1671629627.86,530,123219,70582
208337,14398.714562976873,1671629627.86,530,123221,70559
208337,14398.721682970845,1671629627.86,530,123221,70559
208338,14398.728802964817,1671629627.95,529,123243,70580
208338,14398.73592295879,1671629627.95,529,123243,70580
208339,14398.743042952761,1671629627.95,530,123200,70584
208339,14398.750162946733,1671629627.95,530,123200,70584
208340,14398.757282940705,1671629627.95,529,123200,70584
208340,14398.764402934677,1671629627.95,529,123200,70584
208341,14398.77152292865,1671629627.95,528,123345,70603
208341,14398.778642922622,1671629627.95,528,123345,70603
208342,14398.796214037035,1671629627.95,528,123288,70568
208342,14398.803261954647,1671629627.95,528,123288,70568
208343,14398.810309872259,1671629627.95,529,123288,70592
208343,14398.81735778987,1671629627.95,529,123288,70592
208344,14398.824405707483,1671629628.052,531,123224,70583
208344,14398.831453625095,1671629628.052,531,123224,70583
208345,14398.838501542707,1671629628.052,530,123252,70584
208345,14398.845549460319,1671629628.052,530,123252,70584
208346,14398.85259737793,1671629628.052,531,123283,70574
208346,14398.859645295543,1671629628.052,531,123283,70574
208347,14398.866693213155,1671629628.052,532,123248,70594
208347,14398.873741130767,1671629628.052,532,123248,70594
208348,14398.880789048379,1671629628.052,529,123293,70605
208348,14398.88783696599,1671629628.052,529,123293,70605
208349,14398.894884883603,1671629628.052,529,123385,70604
208349,14398.901932801215,1671629628.052,529,123385,70604
208350,14398.908980718827,1671629628.143,529,123315,70606
208350,14398.916028636439,1671629628.143,529,123315,70606
208351,14398.92307655405,1671629628.143,530,123356,70605
208351,14398.930124471663,1671629628.143,530,123356,70605
208352,14398.958986268388,1671629628.143,529,123329,70620
208352,14398.966324589213,1671629628.143,529,123329,70620
208353,14398.973662910039,1671629628.143,531,123378,70590
208353,14398.981001230864,1671629628.143,531,123378,70590
208354,14398.98833955169,1671629628.143,530,123332,70619
208354,14398.995677872515,1671629628.143,530,123332,70619
208355,14399.003016193341,1671629628.143,531,123296,70619
208355,14399.010354514166,1671629628.143,531,123296,70619
208356,14399.017692834992,1671629628.235,529,123344,70605
208356,14399.025031155817,1671629628.235,529,123344,70605
208357,14399.032369476643,1671629628.235,530,123420,70610
208357,14399.039707797469,1671629628.235,530,123420,70610
208358,14399.047046118294,1671629628.235,529,123427,70641
208358,14399.05438443912,1671629628.235,529,123427,70641
208359,14399.061722759945,1671629628.235,530,123390,70608
208359,14399.06906108077,1671629628.235,530,123390,70608
208360,14399.076399401596,1671629628.235,532,123451,70641
208360,14399.083737722422,1671629628.235,532,123451,70641
208361,14399.091076043247,1671629628.235,530,123452,70646
208361,14399.098414364073,1671629628.235,530,123452,70646
208362,14399.110670588607,1671629628.342,531,123399,70633
208362,14399.117834703597,1671629628.342,531,123399,70633
208363,14399.124998818586,1671629628.342,531,123408,70658
208363,14399.132162933576,1671629628.342,531,123408,70658
208364,14399.139327048566,1671629628.342,528,123488,70654
208364,14399.146491163556,1671629628.342,528,123488,70654
208365,14399.153655278546,1671629628.342,528,123474,70623
208365,14399.160819393535,1671629628.342,528,123474,70623
208366,14399.167983508525,1671629628.342,529,123486,70632
208366,14399.175147623515,1671629628.342,529,123486,70632
208367,14399.182311738505,1671629628.342,528,123374,70611
208367,14399.189475853495,1671629628.342,528,123374,70611
208368,14399.196639968484,1671629628.426,529,123350,70593
208368,14399.203804083474,1671629628.426,529,123350,70593
208369,14399.210968198464,1671629628.426,530,123415,70593
208369,14399.218132313454,1671629628.426,530,123415,70593
208370,14399.225296428443,1671629628.426,530,123376,70577
208370,14399.232460543433,1671629628.426,530,123376,70577
208371,14399.239624658423,1671629628.426,530,123238,70586
208371,14399.246788773413,1671629628.426,530,123238,70586
208372,14399.273579457951,1671629628.426,529,123338,70585
208372,14399.280258338717,1671629628.426,529,123338,70585
208373,14399.286937219482,1671629628.426,529,123244,70567
208373,14399.293616100247,1671629628.426,529,123244,70567
208374,14399.300294981012,1671629628.516,529,123193,70583
208374,14399.306973861778,1671629628.516,529,123193,70583
208375,14399.313652742543,1671629628.516,528,123293,70613
208375,14399.320331623308,1671629628.516,528,123293,70613
208376,14399.327010504074,1671629628.516,531,123284,70587
208376,14399.333689384839,1671629628.516,531,123284,70587
208377,14399.340368265604,1671629628.516,532,123269,70577
208377,14399.34704714637,1671629628.516,532,123269,70577
208378,14399.353726027135,1671629628.516,530,123326,70596
208378,14399.3604049079,1671629628.516,530,123326,70596
208379,14399.367083788666,1671629628.516,529,123280,70591
208379,14399.373762669431,1671629628.516,529,123280,70591
208380,14399.380441550196,1671629628.606,529,123245,70572
208380,14399.387120430962,1671629628.606,529,123245,70572
208381,14399.393799311727,1671629628.606,529,123212,70574
208381,14399.400478192492,1671629628.606,529,123212,70574
208382,14399.421958844123,1671629628.606,529,123161,70551
208382,14399.428981422281,1671629628.606,529,123161,70551
208383,14399.43600400044,1671629628.606,529,123229,70580
208383,14399.443026578598,1671629628.606,529,123229,70580
208384,14399.450049156756,1671629628.606,530,123224,70581
208384,14399.457071734914,1671629628.606,530,123224,70581
208385,14399.464094313073,1671629628.606,530,123193,70586
208385,14399.47111689123,1671629628.606,530,123193,70586
208386,14399.47813946939,1671629628.696,530,123257,70581
208386,14399.485162047547,1671629628.696,530,123257,70581
208387,14399.492184625706,1671629628.696,529,123196,70576
208387,14399.499207203864,1671629628.696,529,123196,70576
208388,14399.506229782022,1671629628.696,528,123174,70546
208388,14399.51325236018,1671629628.696,528,123174,70546
208389,14399.520274938339,1671629628.696,529,123132,70540
