id,lsl_ts,unix_ts,ambient,ir,red
222900,14905.0123847,1671630134.16,551,96302,59337
222900,14905.0123847,1671630134.16,551,96302,59337
222901,14905.0150803,1671630134.16,536,103449,59542
222901,14905.0150803,1671630134.16,536,103449,59542
222902,14905.0177759,1671630134.16,534,103358,59517
222902,14905.0177759,1671630134.16,534,103358,59517
222903,14905.0204715,1671630134.16,532,103365,59534
222903,14905.0204715,1671630134.16,532,103365,59534
222904,14905.0231671,1671630134.16,532,103354,59546
222904,14905.0231671,1671630134.16,532,103354,59546
222905,14905.0258627,1671630134.16,534,103319,59537
222905,14905.0258627,1671630134.16,534,103319,59537
222906,14905.032836866667,1671630134.201,534,103357,59564
222906,14905.032836866667,1671630134.201,534,103357,59564
222907,14905.039811033334,1671630134.201,533,103377,59537
222907,14905.039811033334,1671630134.201,533,103377,59537
222908,14905.0467852,1671630134.201,534,103404,59550
222908,14905.0467852,1671630134.201,534,103404,59550
222909,14905.053759366667,1671630134.201,532,103372,59546
222909,14905.053759366667,1671630134.201,532,103372,59546
222910,14905.060733533333,1671630134.201,531,103435,59561
222910,14905.060733533333,1671630134.201,531,103435,59561
222911,14905.0677077,1671630134.201,530,103426,59584
222911,14905.0677077,1671630134.201,530,103426,59584
222912,14905.076395216667,1671630134.253,533,103422,59546
222912,14905.076395216667,1671630134.253,533,103422,59546
222913,14905.085082733332,1671630134.253,533,103476,59573
222913,14905.085082733332,1671630134.253,533,103476,59573
222914,14905.09377025,1671630134.253,533,103496,59575
222914,14905.09377025,1671630134.253,533,103496,59575
222915,14905.102457766667,1671630134.253,532,103462,59583
222915,14905.102457766667,1671630134.253,532,103462,59583
222916,14905.111145283332,1671630134.253,534,103442,59564
222916,14905.111145283332,1671630134.253,534,103442,59564
222917,14905.1198328,1671630134.253,531,103534,59576
222917,14905.1198328,1671630134.253,531,103534,59576
222918,14905.133489799999,1671630134.335,532,103452,59570
222918,14905.133489799999,1671630134.335,532,103452,59570
222919,14905.1471468,1671630134.335,532,103549,59603
222919,14905.1471468,1671630134.335,532,103549,59603
222920,14905.1608038,1671630134.335,532,103435,59591
222920,14905.1608038,1671630134.335,532,103435,59591
222921,14905.174460799999,1671630134.335,532,103577,59597
222921,14905.174460799999,1671630134.335,532,103577,59597
222922,14905.1881178,1671630134.335,533,103578,59609
222922,14905.1881178,1671630134.335,533,103578,59609
222923,14905.2017748,1671630134.335,532,103452,59598
222923,14905.2017748,1671630134.335,532,103452,59598
222924,14905.215893316667,1671630134.42,532,103481,59592
222924,14905.215893316667,1671630134.42,532,103481,59592
222925,14905.230011833333,1671630134.42,533,103463,59578
222925,14905.230011833333,1671630134.42,533,103463,59578
222926,14905.24413035,1671630134.42,530,103455,59563
222926,14905.24413035,1671630134.42,530,103455,59563
222927,14905.258248866667,1671630134.42,531,103398,59586
222927,14905.258248866667,1671630134.42,531,103398,59586
222928,14905.272367383333,1671630134.42,532,103426,59594
222928,14905.272367383333,1671630134.42,532,103426,59594
222929,14905.2864859,1671630134.42,534,103355,59566
222929,14905.2864859,1671630134.42,534,103355,59566
222930,14905.30528045,1671630134.533,534,103378,59582
222930,14905.30528045,1671630134.533,534,103378,59582
222931,14905.324075,1671630134.533,533,103444,59579
222931,14905.324075,1671630134.533,533,103444,59579
222932,14905.34286955,1671630134.533,533,103301,59559
222932,14905.34286955,1671630134.533,533,103301,59559
222933,14905.361664099999,1671630134.533,531,103345,59568
222933,14905.361664099999,1671630134.533,531,103345,59568
222934,14905.38045865,1671630134.533,532,103301,59557
222934,14905.38045865,1671630134.533,532,103301,59557
222935,14905.3992532,1671630134.533,530,103379,59553
222935,14905.3992532,1671630134.533,530,103379,59553
222936,14905.413959283333,1671630134.621,531,103349,59552
222936,14905.413959283333,1671630134.621,531,103349,59552
222937,14905.428665366666,1671630134.621,534,103275,59534
222937,14905.428665366666,1671630134.621,534,103275,59534
222938,14905.443371450001,1671630134.621,535,103359,59560
222938,14905.443371450001,1671630134.621,535,103359,59560
222939,14905.458077533334,1671630134.621,534,103263,59542
222939,14905.458077533334,1671630134.621,534,103263,59542
222940,14905.472783616668,1671630134.621,533,103285,59533
222940,14905.472783616668,1671630134.621,533,103285,59533
222941,14905.4874897,1671630134.621,532,103322,59547
222941,14905.4874897,1671630134.621,532,103322,59547
222942,14905.502626166668,1671630134.712,530,103274,59540
222942,14905.502626166668,1671630134.712,530,103274,59540
222943,14905.517762633333,1671630134.712,532,103317,59547
222943,14905.517762633333,1671630134.712,532,103317,59547
222944,14905.5328991,1671630134.712,532,103348,59569
222944,14905.5328991,1671630134.712,532,103348,59569
222945,14905.548035566668,1671630134.712,533,103238,59543
222945,14905.548035566668,1671630134.712,533,103238,59543
222946,14905.563172033333,1671630134.712,532,103362,59561
222946,14905.563172033333,1671630134.712,532,103362,59561
222947,14905.5783085,1671630134.712,532,103246,59550
222947,14905.5783085,1671630134.712,532,103246,59550
222948,14905.59401355,1671630134.806,532,103262,59551
222948,14905.59401355,1671630134.806,532,103262,59551
222949,14905.6097186,1671630134.806,532,103303,59565
222949,14905.6097186,1671630134.806,532,103303,59565
222950,14905.625423649999,1671630134.806,532,103281,59569
222950,14905.625423649999,1671630134.806,532,103281,59569
222951,14905.6411287,1671630134.806,530,103270,59548
222951,14905.6411287,1671630134.806,530,103270,59548
222952,14905.65683375,1671630134.806,530,103190,59552
222952,14905.65683375,1671630134.806,530,103190,59552
222953,14905.6725388,1671630134.806,531,103232,59559
222953,14905.6725388,1671630134.806,531,103232,59559
222954,14905.687530883333,1671630134.896,532,103309,59572
222954,14905.687530883333,1671630134.896,532,103309,59572
222955,14905.702522966667,1671630134.896,532,103271,59556
222955,14905.702522966667,1671630134.896,532,103271,59556
222956,14905.71751505,1671630134.896,532,103296,59568
222956,14905.71751505,1671630134.896,532,103296,59568
222957,14905.732507133333,1671630134.896,531,103241,59561
222957,14905.732507133333,1671630134.896,531,103241,59561
222958,14905.747499216666,1671630134.896,530,103282,59573
222958,14905.747499216666,1671630134.896,530,103282,59573
222959,14905.7624913,1671630134.896,532,103289,59576
222959,14905.7624913,1671630134.896,532,103289,59576
222960,14905.777913483333,1671630134.989,531,103306,59559
222960,14905.777913483333,1671630134.989,531,103306,59559
222961,14905.793335666667,1671630134.989,532,103344,59594
222961,14905.793335666667,1671630134.989,532,103344,59594
222962,14905.80875785,1671630134.989,533,103343,59575
222962,14905.80875785,1671630134.989,533,103343,59575
222963,14905.824180033333,1671630134.989,532,103363,59585
222963,14905.824180033333,1671630134.989,532,103363,59585
222964,14905.839602216667,1671630134.989,530,103375,59577
222964,14905.839602216667,1671630134.989,530,103375,59577
222965,14905.8550244,1671630134.989,530,103413,59610
222965,14905.8550244,1671630134.989,530,103413,59610
222966,14905.871221183334,1671630135.086,532,103396,59588
222966,14905.871221183334,1671630135.086,532,103396,59588
222967,14905.887417966667,1671630135.086,531,103365,59593
222967,14905.887417966667,1671630135.086,531,103365,59593
222968,14905.903614750001,1671630135.086,531,103395,59613
222968,14905.903614750001,1671630135.086,531,103395,59613
222969,14905.919811533333,1671630135.086,531,103360,59586
222969,14905.919811533333,1671630135.086,531,103360,59586
222970,14905.936008316667,1671630135.086,534,103394,59595
222970,14905.936008316667,1671630135.086,534,103394,59595
222971,14905.9522051,1671630135.086,531,103358,59607
222971,14905.9522051,1671630135.086,531,103358,59607
222972,14905.967032550001,1671630135.175,533,103378,59621
222972,14905.967032550001,1671630135.175,533,103378,59621
222973,14905.98186,1671630135.175,532,103435,59640
222973,14905.98186,1671630135.175,532,103435,59640
222974,14905.99668745,1671630135.175,533,103409,59605
222974,14905.99668745,1671630135.175,533,103409,59605
222975,14906.011514900001,1671630135.175,531,103417,59621
222975,14906.011514900001,1671630135.175,531,103417,59621
222976,14906.02634235,1671630135.175,531,103410,59632
222976,14906.02634235,1671630135.175,531,103410,59632
222977,14906.0411698,1671630135.175,530,103492,59632
222977,14906.0411698,1671630135.175,530,103492,59632
222978,14906.056867233334,1671630135.269,532,103477,59648
222978,14906.056867233334,1671630135.269,532,103477,59648
222979,14906.072564666667,1671630135.269,532,103551,59665
222979,14906.072564666667,1671630135.269,532,103551,59665
222980,14906.0882621,1671630135.269,533,103534,59654
222980,14906.0882621,1671630135.269,533,103534,59654
222981,14906.103959533333,1671630135.269,531,103491,59684
222981,14906.103959533333,1671630135.269,531,103491,59684
222982,14906.119656966666,1671630135.269,533,103474,59665
222982,14906.119656966666,1671630135.269,533,103474,59665
222983,14906.1353544,1671630135.269,531,103547,59669
222983,14906.1353544,1671630135.269,531,103547,59669
222984,14906.153289933332,1671630135.377,531,103512,59679
222984,14906.153289933332,1671630135.377,531,103512,59679
222985,14906.171225466665,1671630135.377,533,103501,59665
222985,14906.171225466665,1671630135.377,533,103501,59665
222986,14906.189160999998,1671630135.377,532,103641,59695
222986,14906.189160999998,1671630135.377,532,103641,59695
222987,14906.207096533333,1671630135.377,532,103650,59700
222987,14906.207096533333,1671630135.377,532,103650,59700
222988,14906.225032066666,1671630135.377,533,103580,59682
222988,14906.225032066666,1671630135.377,533,103580,59682
222989,14906.2429676,1671630135.377,531,103678,59714
222989,14906.2429676,1671630135.377,531,103678,59714
222990,14906.256212333334,1671630135.456,530,103655,59732
222990,14906.256212333334,1671630135.456,530,103655,59732
222991,14906.269457066666,1671630135.456,532,103596,59699
222991,14906.269457066666,1671630135.456,532,103596,59699
222992,14906.282701799999,1671630135.456,531,103610,59688
222992,14906.282701799999,1671630135.456,531,103610,59688
222993,14906.295946533333,1671630135.456,531,103566,59683
222993,14906.295946533333,1671630135.456,531,103566,59683
222994,14906.309191266668,1671630135.456,534,103454,59665
222994,14906.309191266668,1671630135.456,534,103454,59665
222995,14906.322436,1671630135.456,532,103520,59674
222995,14906.322436,1671630135.456,532,103520,59674
222996,14906.338302033333,1671630135.551,534,103532,59695
222996,14906.338302033333,1671630135.551,534,103532,59695
222997,14906.354168066668,1671630135.551,529,103521,59713
222997,14906.354168066668,1671630135.551,529,103521,59713
222998,14906.3700341,1671630135.551,530,103440,59681
222998,14906.3700341,1671630135.551,530,103440,59681
222999,14906.385900133333,1671630135.551,531,103487,59676
222999,14906.385900133333,1671630135.551,531,103487,59676
223000,14906.401766166668,1671630135.551,531,103433,59672
223000,14906.401766166668,1671630135.551,531,103433,59672
223001,14906.4176322,1671630135.551,530,103521,59685
223001,14906.4176322,1671630135.551,530,103521,59685
223002,14906.432742050001,1671630135.642,531,103449,59683
223002,14906.432742050001,1671630135.642,531,103449,59683
223003,14906.4478519,1671630135.642,532,103405,59666
223003,14906.4478519,1671630135.642,532,103405,59666
223004,14906.46296175,1671630135.642,532,103406,59685
223004,14906.46296175,1671630135.642,532,103406,59685
223005,14906.4780716,1671630135.642,531,103421,59692
223005,14906.4780716,1671630135.642,531,103421,59692
223006,14906.493181450001,1671630135.642,530,103373,59675
223006,14906.493181450001,1671630135.642,530,103373,59675
223007,14906.5082913,1671630135.642,531,103371,59668
223007,14906.5082913,1671630135.642,531,103371,59668
223008,14906.52506225,1671630135.743,530,103369,59668
223008,14906.52506225,1671630135.743,530,103369,59668
223009,14906.5418332,1671630135.743,531,103379,59676
223009,14906.5418332,1671630135.743,531,103379,59676
223010,14906.55860415,1671630135.743,533,103370,59687
223010,14906.55860415,1671630135.743,533,103370,59687
223011,14906.5753751,1671630135.743,532,103451,59668
223011,14906.5753751,1671630135.743,532,103451,59668
223012,14906.59214605,1671630135.743,532,103326,59673
223012,14906.59214605,1671630135.743,532,103326,59673
223013,14906.608917,1671630135.743,532,103387,59669
223013,14906.608917,1671630135.743,532,103387,59669
223014,14906.624507233333,1671630135.836,531,103378,59668
223014,14906.624507233333,1671630135.836,531,103378,59668
223015,14906.640097466667,1671630135.836,530,103430,59688
223015,14906.640097466667,1671630135.836,530,103430,59688
223016,14906.6556877,1671630135.836,530,103317,59659
223016,14906.6556877,1671630135.836,530,103317,59659
223017,14906.671277933332,1671630135.836,532,103352,59667
223017,14906.671277933332,1671630135.836,532,103352,59667
223018,14906.686868166666,1671630135.836,531,103443,59699
223018,14906.686868166666,1671630135.836,531,103443,59699
223019,14906.7024584,1671630135.836,533,103378,59664
223019,14906.7024584,1671630135.836,533,103378,59664
223020,14906.718549599998,1671630135.933,532,103397,59683
223020,14906.718549599998,1671630135.933,532,103397,59683
223021,14906.7346408,1671630135.933,531,103433,59680
223021,14906.7346408,1671630135.933,531,103433,59680
223022,14906.750732,1671630135.933,531,103363,59664
223022,14906.750732,1671630135.933,531,103363,59664
223023,14906.7668232,1671630135.933,531,103416,59686
223023,14906.7668232,1671630135.933,531,103416,59686
223024,14906.782914399999,1671630135.933,530,103493,59693
223024,14906.782914399999,1671630135.933,530,103493,59693
223025,14906.7990056,1671630135.933,532,103413,59692
223025,14906.7990056,1671630135.933,532,103413,59692
223026,14906.813007466666,1671630136.017,533,103401,59675
223026,14906.813007466666,1671630136.017,533,103401,59675
223027,14906.827009333334,1671630136.017,533,103440,59691
223027,14906.827009333334,1671630136.017,533,103440,59691
223028,14906.8410112,1671630136.017,532,103484,59671
223028,14906.8410112,1671630136.017,532,103484,59671
223029,14906.855013066666,1671630136.017,531,103470,59701
223029,14906.855013066666,1671630136.017,531,103470,59701
223030,14906.869014933334,1671630136.017,530,103461,59693
223030,14906.869014933334,1671630136.017,530,103461,59693
223031,14906.8830168,1671630136.017,530,103495,59710
223031,14906.8830168,1671630136.017,530,103495,59710
223032,14906.899136283333,1671630136.113,529,103432,59685
223032,14906.899136283333,1671630136.113,529,103432,59685
223033,14906.915255766668,1671630136.113,529,103522,59709
223033,14906.915255766668,1671630136.113,529,103522,59709
223034,14906.93137525,1671630136.113,531,103445,59694
223034,14906.93137525,1671630136.113,531,103445,59694
223035,14906.947494733333,1671630136.113,531,103476,59702
223035,14906.947494733333,1671630136.113,531,103476,59702
223036,14906.963614216667,1671630136.113,531,103532,59710
223036,14906.963614216667,1671630136.113,531,103532,59710
223037,14906.9797337,1671630136.113,531,103561,59713
223037,14906.9797337,1671630136.113,531,103561,59713
223038,14906.995339383333,1671630136.207,531,103519,59701
223038,14906.995339383333,1671630136.207,531,103519,59701
223039,14907.010945066666,1671630136.207,530,103575,59728
223039,14907.010945066666,1671630136.207,530,103575,59728
223040,14907.02655075,1671630136.207,531,103467,59692
223040,14907.02655075,1671630136.207,531,103467,59692
223041,14907.042156433334,1671630136.207,532,103561,59733
223041,14907.042156433334,1671630136.207,532,103561,59733
223042,14907.057762116667,1671630136.207,534,103546,59723
223042,14907.057762116667,1671630136.207,534,103546,59723
223043,14907.0733678,1671630136.207,531,103641,59756
223043,14907.0733678,1671630136.207,531,103641,59756
223044,14907.088918483332,1671630136.3,532,103564,59728
223044,14907.088918483332,1671630136.3,532,103564,59728
223045,14907.104469166667,1671630136.3,531,103574,59727
223045,14907.104469166667,1671630136.3,531,103574,59727
223046,14907.120019850001,1671630136.3,530,103668,59766
223046,14907.120019850001,1671630136.3,530,103668,59766
223047,14907.135570533334,1671630136.3,530,103613,59752
223047,14907.135570533334,1671630136.3,530,103613,59752
223048,14907.151121216666,1671630136.3,531,103664,59753
223048,14907.151121216666,1671630136.3,531,103664,59753
223049,14907.1666719,1671630136.3,530,103651,59764
223049,14907.1666719,1671630136.3,530,103651,59764
223050,14907.182022266667,1671630136.392,531,103588,59761
223050,14907.182022266667,1671630136.392,531,103588,59761
223051,14907.197372633334,1671630136.392,530,103712,59779
223051,14907.197372633334,1671630136.392,530,103712,59779
223052,14907.212723,1671630136.392,533,103735,59765
223052,14907.212723,1671630136.392,533,103735,59765
223053,14907.228073366667,1671630136.392,531,103673,59769
223053,14907.228073366667,1671630136.392,531,103673,59769
223054,14907.243423733335,1671630136.392,531,103689,59770
223054,14907.243423733335,1671630136.392,531,103689,59770
223055,14907.2587741,1671630136.392,531,103710,59779
223055,14907.2587741,1671630136.392,531,103710,59779
223056,14907.275426716667,1671630136.492,532,103760,59810
223056,14907.275426716667,1671630136.492,532,103760,59810
223057,14907.292079333334,1671630136.492,532,103685,59788
223057,14907.292079333334,1671630136.492,532,103685,59788
223058,14907.308731950001,1671630136.492,532,103797,59804
223058,14907.308731950001,1671630136.492,532,103797,59804
223059,14907.325384566666,1671630136.492,531,103784,59781
223059,14907.325384566666,1671630136.492,531,103784,59781
223060,14907.342037183333,1671630136.492,532,103654,59789
223060,14907.342037183333,1671630136.492,532,103654,59789
223061,14907.3586898,1671630136.492,531,103813,59829
223061,14907.3586898,1671630136.492,531,103813,59829
223062,14907.3743915,1671630136.587,531,103795,59803
223062,14907.3743915,1671630136.587,531,103795,59803
223063,14907.3900932,1671630136.587,531,103646,59768
223063,14907.3900932,1671630136.587,531,103646,59768
223064,14907.4057949,1671630136.587,532,103741,59773
223064,14907.4057949,1671630136.587,532,103741,59773
223065,14907.4214966,1671630136.587,530,103629,59768
223065,14907.4214966,1671630136.587,530,103629,59768
223066,14907.4371983,1671630136.587,533,103726,59781
223066,14907.4371983,1671630136.587,533,103726,59781
223067,14907.4529,1671630136.587,531,103609,59781
223067,14907.4529,1671630136.587,531,103609,59781
223068,14907.470862483333,1671630136.694,532,103685,59787
223068,14907.470862483333,1671630136.694,532,103685,59787
223069,14907.488824966667,1671630136.694,531,103634,59781
223069,14907.488824966667,1671630136.694,531,103634,59781
223070,14907.50678745,1671630136.694,531,103630,59796
223070,14907.50678745,1671630136.694,531,103630,59796
223071,14907.524749933333,1671630136.694,531,103672,59782
223071,14907.524749933333,1671630136.694,531,103672,59782
223072,14907.542712416667,1671630136.694,532,103680,59793
223072,14907.542712416667,1671630136.694,532,103680,59793
223073,14907.5606749,1671630136.694,531,103730,59805
223073,14907.5606749,1671630136.694,531,103730,59805
223074,14907.573534316667,1671630136.771,532,103663,59800
223074,14907.573534316667,1671630136.771,532,103663,59800
223075,14907.586393733332,1671630136.771,532,103647,59779
223075,14907.586393733332,1671630136.771,532,103647,59779
223076,14907.59925315,1671630136.771,532,103603,59774
223076,14907.59925315,1671630136.771,532,103603,59774
223077,14907.612112566667,1671630136.771,531,103593,59792
223077,14907.612112566667,1671630136.771,531,103593,59792
223078,14907.624971983332,1671630136.771,530,103664,59791
223078,14907.624971983332,1671630136.771,530,103664,59791
223079,14907.6378314,1671630136.771,532,103647,59793
223079,14907.6378314,1671630136.771,532,103647,59793
223080,14907.655093333333,1671630136.875,531,103658,59795
223080,14907.655093333333,1671630136.875,531,103658,59795
223081,14907.672355266666,1671630136.875,532,103700,59810
223081,14907.672355266666,1671630136.875,532,103700,59810
223082,14907.6896172,1671630136.875,533,103600,59781
223082,14907.6896172,1671630136.875,533,103600,59781
223083,14907.706879133333,1671630136.875,533,103598,59784
223083,14907.706879133333,1671630136.875,533,103598,59784
223084,14907.724141066667,1671630136.875,532,103623,59795
223084,14907.724141066667,1671630136.875,532,103623,59795
223085,14907.741403,1671630136.875,530,103708,59816
223085,14907.741403,1671630136.875,530,103708,59816
223086,14907.756172866666,1671630136.964,531,103639,59790
223086,14907.756172866666,1671630136.964,531,103639,59790
223087,14907.770942733334,1671630136.964,532,103548,59765
223087,14907.770942733334,1671630136.964,532,103548,59765
223088,14907.7857126,1671630136.964,530,103625,59802
223088,14907.7857126,1671630136.964,530,103625,59802
223089,14907.800482466666,1671630136.964,529,103681,59807
223089,14907.800482466666,1671630136.964,529,103681,59807
223090,14907.815252333334,1671630136.964,531,103672,59796
223090,14907.815252333334,1671630136.964,531,103672,59796
223091,14907.8300222,1671630136.964,531,103727,59820
223091,14907.8300222,1671630136.964,531,103727,59820
223092,14907.845267033334,1671630137.055,531,103665,59794
223092,14907.845267033334,1671630137.055,531,103665,59794
223093,14907.860511866667,1671630137.055,532,103610,59796
223093,14907.860511866667,1671630137.055,532,103610,59796
223094,14907.8757567,1671630137.055,531,103620,59794
223094,14907.8757567,1671630137.055,531,103620,59794
223095,14907.891001533333,1671630137.055,531,103705,59805
223095,14907.891001533333,1671630137.055,531,103705,59805
223096,14907.906246366667,1671630137.055,532,103640,59805
223096,14907.906246366667,1671630137.055,532,103640,59805
223097,14907.9214912,1671630137.055,532,103635,59790
223097,14907.9214912,1671630137.055,532,103635,59790
223098,14907.936632750001,1671630137.146,532,103714,59790
223098,14907.936632750001,1671630137.146,532,103714,59790
223099,14907.9517743,1671630137.146,532,103710,59809
223099,14907.9517743,1671630137.146,532,103710,59809
223100,14907.96691585,1671630137.146,532,103737,59803
223100,14907.96691585,1671630137.146,532,103737,59803
223101,14907.9820574,1671630137.146,532,103724,59829
223101,14907.9820574,1671630137.146,532,103724,59829
223102,14907.997198949999,1671630137.146,529,103741,59812
223102,14907.997198949999,1671630137.146,529,103741,59812
223103,14908.0123405,1671630137.146,530,103793,59839
223103,14908.0123405,1671630137.146,530,103793,59839
223104,14908.029393266666,1671630137.248,531,103666,59812
223104,14908.029393266666,1671630137.248,531,103666,59812
223105,14908.046446033333,1671630137.248,532,103707,59804
223105,14908.046446033333,1671630137.248,532,103707,59804
223106,14908.0634988,1671630137.248,532,103748,59818
223106,14908.0634988,1671630137.248,532,103748,59818
223107,14908.080551566667,1671630137.248,533,103756,59814
223107,14908.080551566667,1671630137.248,533,103756,59814
223108,14908.097604333334,1671630137.248,532,103822,59849
223108,14908.097604333334,1671630137.248,532,103822,59849
223109,14908.1146571,1671630137.248,533,103800,59812
223109,14908.1146571,1671630137.248,533,103800,59812
223110,14908.129292766667,1671630137.336,532,103719,59822
223110,14908.129292766667,1671630137.336,532,103719,59822
223111,14908.143928433334,1671630137.336,530,103844,59827
223111,14908.143928433334,1671630137.336,530,103844,59827
223112,14908.1585641,1671630137.336,531,103866,59867
223112,14908.1585641,1671630137.336,531,103866,59867
223113,14908.173199766667,1671630137.336,531,103787,59835
223113,14908.173199766667,1671630137.336,531,103787,59835
223114,14908.187835433333,1671630137.336,532,103740,59825
223114,14908.187835433333,1671630137.336,532,103740,59825
223115,14908.2024711,1671630137.336,532,103875,59856
223115,14908.2024711,1671630137.336,532,103875,59856
223116,14908.216106783333,1671630137.418,531,103872,59837
223116,14908.216106783333,1671630137.418,531,103872,59837
223117,14908.229742466667,1671630137.418,532,103886,59861
223117,14908.229742466667,1671630137.418,532,103886,59861
223118,14908.24337815,1671630137.418,532,103890,59878
223118,14908.24337815,1671630137.418,532,103890,59878
223119,14908.257013833332,1671630137.418,530,103811,59838
223119,14908.257013833332,1671630137.418,530,103811,59838
223120,14908.270649516666,1671630137.418,529,103823,59847
223120,14908.270649516666,1671630137.418,529,103823,59847
223121,14908.2842852,1671630137.418,531,103870,59846
223121,14908.2842852,1671630137.418,531,103870,59846
223122,14908.299385933333,1671630137.509,533,103914,59867
223122,14908.299385933333,1671630137.509,533,103914,59867
223123,14908.314486666666,1671630137.509,532,103880,59877
223123,14908.314486666666,1671630137.509,532,103880,59877
223124,14908.3295874,1671630137.509,531,103948,59860
223124,14908.3295874,1671630137.509,531,103948,59860
223125,14908.344688133333,1671630137.509,532,103823,59861
223125,14908.344688133333,1671630137.509,532,103823,59861
223126,14908.359788866666,1671630137.509,531,103872,59851
223126,14908.359788866666,1671630137.509,531,103872,59851
223127,14908.3748896,1671630137.509,531,103982,59865
223127,14908.3748896,1671630137.509,531,103982,59865
223128,14908.3912922,1671630137.607,532,103910,59872
223128,14908.3912922,1671630137.607,532,103910,59872
223129,14908.4076948,1671630137.607,531,103872,59841
223129,14908.4076948,1671630137.607,531,103872,59841
223130,14908.424097399999,1671630137.607,532,103914,59875
223130,14908.424097399999,1671630137.607,532,103914,59875
223131,14908.440499999999,1671630137.607,533,103933,59847
223131,14908.440499999999,1671630137.607,533,103933,59847
223132,14908.456902599999,1671630137.607,533,103898,59850
223132,14908.456902599999,1671630137.607,533,103898,59850
223133,14908.4733052,1671630137.607,533,103819,59825
223133,14908.4733052,1671630137.607,533,103819,59825
223134,14908.489412066667,1671630137.704,531,103906,59870
223134,14908.489412066667,1671630137.704,531,103906,59870
223135,14908.505518933332,1671630137.704,531,103859,59865
223135,14908.505518933332,1671630137.704,531,103859,59865
223136,14908.5216258,1671630137.704,530,103917,59850
223136,14908.5216258,1671630137.704,530,103917,59850
223137,14908.537732666668,1671630137.704,532,103842,59857
223137,14908.537732666668,1671630137.704,532,103842,59857
223138,14908.553839533333,1671630137.704,533,103758,59842
223138,14908.553839533333,1671630137.704,533,103758,59842
223139,14908.5699464,1671630137.704,533,103789,59845
223139,14908.5699464,1671630137.704,533,103789,59845
223140,14908.585026983334,1671630137.794,533,103845,59831
223140,14908.585026983334,1671630137.794,533,103845,59831
223141,14908.600107566666,1671630137.794,531,103916,59851
223141,14908.600107566666,1671630137.794,531,103916,59851
223142,14908.61518815,1671630137.794,532,103777,59834
223142,14908.61518815,1671630137.794,532,103777,59834
223143,14908.630268733334,1671630137.794,531,103840,59854
223143,14908.630268733334,1671630137.794,531,103840,59854
223144,14908.645349316666,1671630137.794,533,103794,59849
223144,14908.645349316666,1671630137.794,533,103794,59849
223145,14908.6604299,1671630137.794,533,103825,59849
223145,14908.6604299,1671630137.794,533,103825,59849
223146,14908.674368583332,1671630137.878,532,103816,59829
223146,14908.674368583332,1671630137.878,532,103816,59829
223147,14908.688307266666,1671630137.878,532,103792,59828
223147,14908.688307266666,1671630137.878,532,103792,59828
223148,14908.70224595,1671630137.878,531,103807,59840
223148,14908.70224595,1671630137.878,531,103807,59840
223149,14908.716184633333,1671630137.878,531,103865,59842
223149,14908.716184633333,1671630137.878,531,103865,59842
223150,14908.724748049199,1671630137.878,531,103821,59827
223150,14908.731313943139,1671630137.878,531,103821,59827
223151,14908.73787983708,1671630137.878,531,103835,59823
223151,14908.74444573102,1671630137.878,531,103835,59823
223152,14908.75101162496,1671630137.975,531,103796,59830
223152,14908.7575775189,1671630137.975,531,103796,59830
223153,14908.76414341284,1671630137.975,531,103829,59837
223153,14908.77070930678,1671630137.975,531,103829,59837
223154,14908.77727520072,1671630137.975,532,103900,59847
223154,14908.78384109466,1671630137.975,532,103900,59847
223155,14908.7904069886,1671630137.975,533,103833,59821
223155,14908.796972882541,1671630137.975,533,103833,59821
223156,14908.803538776481,1671630137.975,531,103847,59851
223156,14908.810104670421,1671630137.975,531,103847,59851
223157,14908.816670564362,1671630137.975,530,103851,59836
223157,14908.823236458302,1671630137.975,530,103851,59836
223158,14908.829802352242,1671630138.073,531,103884,59834
223158,14908.836368246182,1671630138.073,531,103884,59834
223159,14908.842934140122,1671630138.073,531,103845,59808
223159,14908.849500034063,1671630138.073,531,103845,59808
223160,14908.884116734014,1671630138.073,530,103934,59840
223160,14908.891771056065,1671630138.073,530,103934,59840
223161,14908.899425378117,1671630138.073,531,103866,59810
223161,14908.907079700168,1671630138.073,531,103866,59810
223162,14908.914734022219,1671630138.073,532,103879,59814
223162,14908.92238834427,1671630138.073,532,103879,59814
223163,14908.930042666321,1671630138.073,533,103760,59786
223163,14908.937696988372,1671630138.073,533,103760,59786
223164,14908.945351310424,1671630138.164,532,103882,59821
223164,14908.953005632475,1671630138.164,532,103882,59821
223165,14908.960659954526,1671630138.164,531,103915,59828
223165,14908.968314276577,1671630138.164,531,103915,59828
223166,14908.975968598628,1671630138.164,531,103823,59797
223166,14908.98362292068,1671630138.164,531,103823,59797
223167,14908.99127724273,1671630138.164,530,103861,59830
223167,14908.998931564782,1671630138.164,530,103861,59830
223168,14909.006585886833,1671630138.164,530,103900,59825
223168,14909.014240208884,1671630138.164,530,103900,59825
223169,14909.021894530935,1671630138.164,531,103836,59822
223169,14909.029548852986,1671630138.164,531,103836,59822
223170,14909.040112943243,1671630138.259,532,103909,59813
223170,14909.047239921127,1671630138.259,532,103909,59813
223171,14909.05436689901,1671630138.259,531,103829,59819
223171,14909.061493876894,1671630138.259,531,103829,59819
223172,14909.068620854778,1671630138.259,532,103881,59792
223172,14909.075747832661,1671630138.259,532,103881,59792
223173,14909.082874810545,1671630138.259,532,103930,59811
223173,14909.090001788429,1671630138.259,532,103930,59811
223174,14909.097128766312,1671630138.259,530,103930,59814
223174,14909.104255744196,1671630138.259,530,103930,59814
223175,14909.11138272208,1671630138.259,531,103924,59824
223175,14909.118509699963,1671630138.259,531,103924,59824
223176,14909.125636677847,1671630138.357,531,103956,59797
223176,14909.13276365573,1671630138.357,531,103956,59797
223177,14909.139890633614,1671630138.357,530,104011,59852
223177,14909.147017611498,1671630138.357,530,104011,59852
223178,14909.154144589382,1671630138.357,531,103969,59828
223178,14909.161271567265,1671630138.357,531,103969,59828
223179,14909.16839854515,1671630138.357,533,104011,59833
223179,14909.175525523033,1671630138.357,533,104011,59833
223180,14909.200841183621,1671630138.357,531,103898,59808
223180,14909.208549900208,1671630138.357,531,103898,59808
223181,14909.216258616794,1671630138.357,532,103955,59807
223181,14909.22396733338,1671630138.357,532,103955,59807
223182,14909.231676049967,1671630138.452,530,103970,59834
223182,14909.239384766553,1671630138.452,530,103970,59834
223183,14909.24709348314,1671630138.452,530,104047,59824
223183,14909.254802199726,1671630138.452,530,104047,59824
223184,14909.262510916313,1671630138.452,533,103910,59829
223184,14909.2702196329,1671630138.452,533,103910,59829
223185,14909.277928349486,1671630138.452,532,104050,59829
223185,14909.285637066072,1671630138.452,532,104050,59829
223186,14909.293345782658,1671630138.452,533,104079,59842
223186,14909.301054499245,1671630138.452,533,104079,59842
223187,14909.308763215831,1671630138.452,534,104062,59847
223187,14909.316471932418,1671630138.452,534,104062,59847
223188,14909.324180649004,1671630138.554,533,104056,59822
223188,14909.33188936559,1671630138.554,533,104056,59822
223189,14909.339598082177,1671630138.554,531,104028,59817
223189,14909.347306798763,1671630138.554,531,104028,59817
223190,14909.362380878478,1671630138.554,531,104012,59828
223190,14909.370174476964,1671630138.554,531,104012,59828
223191,14909.37796807545,1671630138.554,531,103979,59812
223191,14909.385761673937,1671630138.554,531,103979,59812
223192,14909.393555272423,1671630138.554,533,104122,59848
223192,14909.40134887091,1671630138.554,533,104122,59848
223193,14909.409142469396,1671630138.554,532,104066,59843
223193,14909.416936067882,1671630138.554,532,104066,59843
223194,14909.424729666369,1671630138.628,531,104099,59828
223194,14909.432523264855,1671630138.628,531,104099,59828
223195,14909.440316863342,1671630138.628,532,104147,59844
223195,14909.448110461828,1671630138.628,532,104147,59844
223196,14909.455904060314,1671630138.628,532,104195,59845
223196,14909.4636976588,1671630138.628,532,104195,59845
223197,14909.471491257287,1671630138.628,532,104115,59831
223197,14909.479284855774,1671630138.628,532,104115,59831
223198,14909.48707845426,1671630138.628,530,104041,59833
223198,14909.494872052746,1671630138.628,530,104041,59833
223199,14909.502665651233,1671630138.628,530,104132,59861
223199,14909.51045924972,1671630138.628,530,104132,59861
223200,14909.501840500312,1671630138.735,530,104147,59840
223200,14909.507641738299,1671630138.735,530,104147,59840
223201,14909.513442976286,1671630138.735,530,104063,59849
223201,14909.519244214272,1671630138.735,530,104063,59849
223202,14909.52504545226,1671630138.735,532,104089,59835
223202,14909.530846690246,1671630138.735,532,104089,59835
223203,14909.536647928233,1671630138.735,532,104043,59841
223203,14909.54244916622,1671630138.735,532,104043,59841
223204,14909.548250404207,1671630138.735,533,103989,59812
223204,14909.554051642193,1671630138.735,533,103989,59812
223205,14909.55985288018,1671630138.735,531,103987,59800
223205,14909.565654118167,1671630138.735,531,103987,59800
223206,14909.571455356154,1671630138.823,531,104022,59799
223206,14909.57725659414,1671630138.823,531,104022,59799
223207,14909.583057832127,1671630138.823,531,104091,59828
223207,14909.588859070114,1671630138.823,531,104091,59828
223208,14909.594660308101,1671630138.823,530,103903,59793
223208,14909.600461546088,1671630138.823,530,103903,59793
223209,14909.606262784075,1671630138.823,531,104039,59818
223209,14909.612064022062,1671630138.823,531,104039,59818
223210,14909.669391253503,1671630138.823,530,104112,59799
223210,14909.676371758997,1671630138.823,530,104112,59799
223211,14909.68335226449,1671630138.823,531,104071,59809
223211,14909.690332769984,1671630138.823,531,104071,59809
223212,14909.697313275477,1671630138.914,532,104005,59812
223212,14909.704293780971,1671630138.914,532,104005,59812
223213,14909.711274286465,1671630138.914,532,103990,59781
223213,14909.718254791958,1671630138.914,532,103990,59781
223214,14909.725235297452,1671630138.914,531,103993,59786
223214,14909.732215802946,1671630138.914,531,103993,59786
223215,14909.73919630844,1671630138.914,530,104016,59785
223215,14909.746176813933,1671630138.914,530,104016,59785
223216,14909.753157319426,1671630138.914,531,103913,59771
223216,14909.76013782492,1671630138.914,531,103913,59771
223217,14909.767118330414,1671630138.914,531,103947,59775
223217,14909.774098835907,1671630138.914,531,103947,59775
223218,14909.781079341401,1671630139.007,532,104050,59763
223218,14909.788059846895,1671630139.007,532,104050,59763
223219,14909.795040352388,1671630139.007,531,103998,59765
223219,14909.802020857882,1671630139.007,531,103998,59765
223220,14909.82040767004,1671630139.007,531,104036,59761
223220,14909.827628277832,1671630139.007,531,104036,59761
223221,14909.834848885623,1671630139.007,532,103959,59747
223221,14909.842069493414,1671630139.007,532,103959,59747
223222,14909.849290101205,1671630139.007,531,103925,59755
223222,14909.856510708996,1671630139.007,531,103925,59755
223223,14909.863731316787,1671630139.007,530,103983,59747
223223,14909.870951924579,1671630139.007,530,103983,59747
223224,14909.87817253237,1671630139.1,529,103956,59727
223224,14909.88539314016,1671630139.1,529,103956,59727
223225,14909.892613747952,1671630139.1,531,103897,59729
223225,14909.899834355743,1671630139.1,531,103897,59729
223226,14909.907054963534,1671630139.1,530,103916,59732
223226,14909.914275571326,1671630139.1,530,103916,59732
223227,14909.921496179117,1671630139.1,532,103986,59733
223227,14909.928716786908,1671630139.1,532,103986,59733
223228,14909.935937394699,1671630139.1,532,103954,59724
223228,14909.94315800249,1671630139.1,532,103954,59724
223229,14909.950378610281,1671630139.1,530,103999,59740
223229,14909.957599218073,1671630139.1,530,103999,59740
223230,14909.976063202068,1671630139.204,530,103965,59714
223230,14909.983352977768,1671630139.204,530,103965,59714
223231,14909.990642753468,1671630139.204,530,103922,59692
223231,14909.997932529168,1671630139.204,530,103922,59692
223232,14910.005222304868,1671630139.204,529,104010,59735
223232,14910.012512080568,1671630139.204,529,104010,59735
223233,14910.019801856268,1671630139.204,532,103961,59715
223233,14910.027091631968,1671630139.204,532,103961,59715
223234,14910.034381407668,1671630139.204,532,103937,59687
223234,14910.041671183368,1671630139.204,532,103937,59687
223235,14910.048960959068,1671630139.204,532,104025,59728
223235,14910.056250734768,1671630139.204,532,104025,59728
223236,14910.063540510468,1671630139.298,531,104002,59737
223236,14910.070830286168,1671630139.298,531,104002,59737
223237,14910.078120061868,1671630139.298,531,103940,59694
223237,14910.085409837568,1671630139.298,531,103940,59694
223238,14910.092699613268,1671630139.298,531,103951,59683
223238,14910.099989388968,1671630139.298,531,103951,59683
223239,14910.107279164667,1671630139.298,530,104053,59706
223239,14910.114568940367,1671630139.298,530,104053,59706
223240,14910.14283938668,1671630139.298,531,103994,59692
223240,14910.150288938034,1671630139.298,531,103994,59692
223241,14910.157738489386,1671630139.298,531,104007,59689
223241,14910.165188040739,1671630139.298,531,104007,59689
223242,14910.172637592092,1671630139.386,532,103998,59693
223242,14910.180087143444,1671630139.386,532,103998,59693
223243,14910.187536694797,1671630139.386,532,103934,59704
223243,14910.19498624615,1671630139.386,532,103934,59704
223244,14910.202435797502,1671630139.386,532,103994,59697
223244,14910.209885348855,1671630139.386,532,103994,59697
223245,14910.217334900208,1671630139.386,531,103939,59690
223245,14910.22478445156,1671630139.386,531,103939,59690
223246,14910.232234002913,1671630139.386,531,104044,59685
223246,14910.239683554266,1671630139.386,531,104044,59685
223247,14910.247133105619,1671630139.386,530,104007,59709
223247,14910.254582656971,1671630139.386,530,104007,59709
223248,14910.262032208324,1671630139.487,531,103999,59697
223248,14910.269481759677,1671630139.487,531,103999,59697
223249,14910.27693131103,1671630139.487,532,104032,59702
223249,14910.284380862382,1671630139.487,532,104032,59702
223250,14910.295455207679,1671630139.487,532,104021,59684
223250,14910.303035673418,1671630139.487,532,104021,59684
223251,14910.310616139157,1671630139.487,532,104080,59697
223251,14910.318196604896,1671630139.487,532,104080,59697
223252,14910.325777070635,1671630139.487,533,104000,59693
223252,14910.333357536374,1671630139.487,533,104000,59693
223253,14910.340938002113,1671630139.487,531,104080,59704
223253,14910.348518467852,1671630139.487,531,104080,59704
223254,14910.356098933591,1671630139.574,530,104028,59686
223254,14910.36367939933,1671630139.574,530,104028,59686
223255,14910.371259865069,1671630139.574,529,104042,59692
223255,14910.378840330808,1671630139.574,529,104042,59692
223256,14910.386420796547,1671630139.574,531,104019,59698
223256,14910.394001262286,1671630139.574,531,104019,59698
223257,14910.401581728025,1671630139.574,532,104091,59676
223257,14910.409162193764,1671630139.574,532,104091,59676
223258,14910.416742659503,1671630139.574,530,104079,59692
223258,14910.424323125242,1671630139.574,530,104079,59692
223259,14910.431903590981,1671630139.574,533,104078,59678
223259,14910.43948405672,1671630139.574,533,104078,59678
223260,14910.44878805583,1671630139.663,531,104109,59695
223260,14910.45557844459,1671630139.663,531,104109,59695
223261,14910.462368833349,1671630139.663,532,104125,59711
223261,14910.469159222108,1671630139.663,532,104125,59711
223262,14910.475949610867,1671630139.663,531,104194,59700
223262,14910.482739999627,1671630139.663,531,104194,59700
223263,14910.489530388386,1671630139.663,532,104129,59699
223263,14910.496320777145,1671630139.663,532,104129,59699
223264,14910.503111165905,1671630139.663,530,104079,59689
223264,14910.509901554664,1671630139.663,530,104079,59689
223265,14910.516691943423,1671630139.663,531,104211,59712
223265,14910.523482332183,1671630139.663,531,104211,59712
223266,14910.530272720942,1671630139.755,532,104181,59707
223266,14910.537063109701,1671630139.755,532,104181,59707
223267,14910.54385349846,1671630139.755,532,104220,59725
223267,14910.55064388722,1671630139.755,532,104220,59725
223268,14910.55743427598,1671630139.755,532,104187,59700
223268,14910.564224664739,1671630139.755,532,104187,59700
223269,14910.571015053498,1671630139.755,532,104226,59712
223269,14910.577805442257,1671630139.755,532,104226,59712
223270,14910.600264312516,1671630139.755,531,104239,59709
223270,14910.607422316385,1671630139.755,531,104239,59709
223271,14910.614580320254,1671630139.755,532,104209,59717
223271,14910.621738324124,1671630139.755,532,104209,59717
223272,14910.628896327993,1671630139.859,531,104190,59704
223272,14910.636054331862,1671630139.859,531,104190,59704
223273,14910.643212335732,1671630139.859,532,104202,59680
223273,14910.650370339601,1671630139.859,532,104202,59680
223274,14910.65752834347,1671630139.859,532,104186,59693
223274,14910.66468634734,1671630139.859,532,104186,59693
223275,14910.671844351209,1671630139.859,533,104129,59691
223275,14910.679002355078,1671630139.859,533,104129,59691
223276,14910.686160358948,1671630139.859,530,104042,59660
223276,14910.693318362817,1671630139.859,530,104042,59660
223277,14910.700476366686,1671630139.859,533,104048,59643
223277,14910.707634370556,1671630139.859,533,104048,59643
223278,14910.714792374425,1671630139.963,533,104045,59649
223278,14910.721950378294,1671630139.963,533,104045,59649
223279,14910.729108382164,1671630139.963,530,104001,59649
223279,14910.736266386033,1671630139.963,530,104001,59649
223280,14910.770551177206,1671630139.963,531,104121,59669
223280,14910.77866647849,1671630139.963,531,104121,59669
223281,14910.786781779776,1671630139.963,532,104017,59648
223281,14910.794897081061,1671630139.963,532,104017,59648
223282,14910.803012382346,1671630139.963,532,104047,59635
223282,14910.811127683632,1671630139.963,532,104047,59635
223283,14910.819242984917,1671630139.963,531,104122,59644
223283,14910.827358286202,1671630139.963,531,104122,59644
223284,14910.835473587487,1671630140.038,533,104008,59628
223284,14910.843588888773,1671630140.038,533,104008,59628
223285,14910.851704190058,1671630140.038,531,104105,59631
223285,14910.859819491343,1671630140.038,531,104105,59631
223286,14910.867934792628,1671630140.038,530,104075,59607
223286,14910.876050093913,1671630140.038,530,104075,59607
223287,14910.884165395199,1671630140.038,531,103978,59614
223287,14910.892280696484,1671630140.038,531,103978,59614
223288,14910.900395997769,1671630140.038,531,104020,59595
223288,14910.908511299054,1671630140.038,531,104020,59595
223289,14910.91662660034,1671630140.038,531,104053,59613
223289,14910.924741901625,1671630140.038,531,104053,59613
223290,14910.91254063076,1671630140.131,532,104035,59595
223290,14910.918464455453,1671630140.131,532,104035,59595
223291,14910.924388280147,1671630140.131,532,103996,59612
223291,14910.930312104842,1671630140.131,532,103996,59612
223292,14910.936235929536,1671630140.131,532,103985,59562
223292,14910.94215975423,1671630140.131,532,103985,59562
223293,14910.948083578924,1671630140.131,531,103891,59549
223293,14910.954007403618,1671630140.131,531,103891,59549
223294,14910.959931228312,1671630140.131,529,104006,59560
223294,14910.965855053006,1671630140.131,529,104006,59560
223295,14910.9717788777,1671630140.131,530,103967,59572
223295,14910.977702702394,1671630140.131,530,103967,59572
223296,14910.983626527088,1671630140.235,531,103973,59561
223296,14910.989550351782,1671630140.235,531,103973,59561
223297,14910.995474176476,1671630140.235,530,103994,59563
223297,14911.00139800117,1671630140.235,530,103994,59563
223298,14911.007321825864,1671630140.235,531,103908,59555
223298,14911.013245650558,1671630140.235,531,103908,59555
223299,14911.019169475252,1671630140.235,531,103965,59553
223299,14911.025093299946,1671630140.235,531,103965,59553
223300,14911.077064285608,1671630140.235,532,103954,59563
223300,14911.085095678123,1671630140.235,532,103954,59563
223301,14911.093127070639,1671630140.235,531,103880,59521
223301,14911.101158463154,1671630140.235,531,103880,59521
223302,14911.10918985567,1671630140.324,532,103930,59536
223302,14911.117221248185,1671630140.324,532,103930,59536
223303,14911.1252526407,1671630140.324,530,103968,59543
223303,14911.133284033216,1671630140.324,530,103968,59543
223304,14911.141315425732,1671630140.324,532,103875,59512
223304,14911.149346818247,1671630140.324,532,103875,59512
223305,14911.157378210763,1671630140.324,530,103979,59526
223305,14911.165409603278,1671630140.324,530,103979,59526
223306,14911.173440995793,1671630140.324,531,104035,59522
223306,14911.181472388309,1671630140.324,531,104035,59522
223307,14911.189503780824,1671630140.324,533,103877,59499
223307,14911.19753517334,1671630140.324,533,103877,59499
223308,14911.205566565855,1671630140.418,531,103938,59503
223308,14911.21359795837,1671630140.418,531,103938,59503
223309,14911.221629350886,1671630140.418,533,103869,59520
223309,14911.229660743402,1671630140.418,533,103869,59520
223310,14911.23087593922,1671630140.418,529,104051,59517
223310,14911.238089073951,1671630140.418,529,104051,59517
223311,14911.245302208683,1671630140.418,531,103917,59531
223311,14911.252515343414,1671630140.418,531,103917,59531
223312,14911.259728478146,1671630140.418,530,103948,59502
223312,14911.266941612877,1671630140.418,530,103948,59502
223313,14911.274154747609,1671630140.418,531,103912,59508
223313,14911.28136788234,1671630140.418,531,103912,59508
223314,14911.288581017072,1671630140.506,531,103961,59495
223314,14911.295794151803,1671630140.506,531,103961,59495
223315,14911.303007286535,1671630140.506,533,104024,59514
223315,14911.310220421266,1671630140.506,533,104024,59514
223316,14911.317433555998,1671630140.506,531,104024,59526
223316,14911.32464669073,1671630140.506,531,104024,59526
223317,14911.331859825461,1671630140.506,531,103932,59517
223317,14911.339072960192,1671630140.506,531,103932,59517
223318,14911.346286094924,1671630140.506,531,103885,59499
223318,14911.353499229655,1671630140.506,531,103885,59499
223319,14911.360712364387,1671630140.506,531,103985,59515
223319,14911.367925499118,1671630140.506,531,103985,59515
223320,14911.380930326339,1671630140.607,530,103940,59506
223320,14911.387811302746,1671630140.607,530,103940,59506
223321,14911.394692279153,1671630140.607,531,103977,59504
223321,14911.40157325556,1671630140.607,531,103977,59504
223322,14911.408454231967,1671630140.607,531,104004,59491
223322,14911.415335208374,1671630140.607,531,104004,59491
223323,14911.422216184781,1671630140.607,532,103988,59499
223323,14911.429097161188,1671630140.607,532,103988,59499
223324,14911.435978137595,1671630140.607,531,104017,59520
223324,14911.442859114002,1671630140.607,531,104017,59520
223325,14911.44974009041,1671630140.607,533,103895,59519
223325,14911.456621066816,1671630140.607,533,103895,59519
223326,14911.463502043223,1671630140.699,531,103970,59505
223326,14911.47038301963,1671630140.699,531,103970,59505
223327,14911.477263996037,1671630140.699,531,104040,59528
223327,14911.484144972444,1671630140.699,531,104040,59528
223328,14911.491025948852,1671630140.699,531,104049,59514
223328,14911.497906925259,1671630140.699,531,104049,59514
223329,14911.504787901666,1671630140.699,532,103988,59504
223329,14911.511668878073,1671630140.699,532,103988,59504
223330,14911.543824528833,1671630140.699,531,104080,59534
223330,14911.551068009385,1671630140.699,531,104080,59534
223331,14911.558311489936,1671630140.699,533,103977,59510
223331,14911.565554970488,1671630140.699,533,103977,59510
223332,14911.57279845104,1671630140.792,532,104037,59519
223332,14911.580041931591,1671630140.792,532,104037,59519
223333,14911.587285412143,1671630140.792,532,104126,59529
223333,14911.594528892694,1671630140.792,532,104126,59529
223334,14911.601772373246,1671630140.792,532,103992,59514
223334,14911.609015853797,1671630140.792,532,103992,59514
223335,14911.616259334349,1671630140.792,530,104074,59531
223335,14911.6235028149,1671630140.792,530,104074,59531
223336,14911.630746295452,1671630140.792,529,104163,59536
223336,14911.637989776003,1671630140.792,529,104163,59536
223337,14911.645233256555,1671630140.792,532,104020,59538
223337,14911.652476737107,1671630140.792,532,104020,59538
223338,14911.659720217658,1671630140.877,532,104059,59524
223338,14911.66696369821,1671630140.877,532,104059,59524
223339,14911.674207178761,1671630140.877,533,104081,59522
223339,14911.681450659313,1671630140.877,533,104081,59522
223340,14911.69576041913,1671630140.877,532,103984,59492
223340,14911.702622205074,1671630140.877,532,103984,59492
223341,14911.709483991017,1671630140.877,532,104053,59497
223341,14911.71634577696,1671630140.877,532,104053,59497
223342,14911.723207562904,1671630140.877,531,104083,59501
223342,14911.730069348847,1671630140.877,531,104083,59501
223343,14911.73693113479,1671630140.877,530,104017,59488
223343,14911.743792920734,1671630140.877,530,104017,59488
223344,14911.750654706677,1671630140.975,530,103944,59483
223344,14911.75751649262,1671630140.975,530,103944,59483
223345,14911.764378278564,1671630140.975,531,103915,59458
223345,14911.771240064507,1671630140.975,531,103915,59458
223346,14911.77810185045,1671630140.975,531,103885,59464
223346,14911.784963636394,1671630140.975,531,103885,59464
223347,14911.791825422337,1671630140.975,532,103911,59472
223347,14911.79868720828,1671630140.975,532,103911,59472
223348,14911.805548994223,1671630140.975,532,103921,59459
223348,14911.812410780167,1671630140.975,532,103921,59459
223349,14911.81927256611,1671630140.975,532,103869,59430
223349,14911.826134352053,1671630140.975,532,103869,59430
223350,14911.8509415011,1671630141.095,531,103919,59420
223350,14911.858531189231,1671630141.095,531,103919,59420
223351,14911.866120877363,1671630141.095,530,103884,59427
223351,14911.873710565495,1671630141.095,530,103884,59427
223352,14911.881300253626,1671630141.095,531,103856,59407
223352,14911.888889941758,1671630141.095,531,103856,59407
223353,14911.89647962989,1671630141.095,531,103891,59416
223353,14911.904069318021,1671630141.095,531,103891,59416
223354,14911.911659006153,1671630141.095,532,103872,59390
223354,14911.919248694285,1671630141.095,532,103872,59390
223355,14911.926838382416,1671630141.095,531,103906,59425
223355,14911.934428070548,1671630141.095,531,103906,59425
223356,14911.94201775868,1671630141.164,532,103776,59365
223356,14911.949607446812,1671630141.164,532,103776,59365
223357,14911.957197134943,1671630141.164,533,103820,59380
223357,14911.964786823075,1671630141.164,533,103820,59380
223358,14911.972376511207,1671630141.164,530,103778,59372
223358,14911.979966199338,1671630141.164,530,103778,59372
223359,14911.98755588747,1671630141.164,529,103764,59360
223359,14911.995145575602,1671630141.164,529,103764,59360
223360,14912.01440035882,1671630141.164,529,103717,59360
223360,14912.020020837546,1671630141.164,529,103717,59360
223361,14912.025641316273,1671630141.164,531,103698,59343
223361,14912.031261795,1671630141.164,531,103698,59343
223362,14912.036882273727,1671630141.259,531,103829,59351
223362,14912.042502752454,1671630141.259,531,103829,59351
223363,14912.048123231181,1671630141.259,531,103784,59336
223363,14912.053743709908,1671630141.259,531,103784,59336
223364,14912.059364188635,1671630141.259,531,103760,59345
223364,14912.064984667362,1671630141.259,531,103760,59345
223365,14912.07060514609,1671630141.259,532,103722,59329
223365,14912.076225624816,1671630141.259,532,103722,59329
223366,14912.081846103543,1671630141.259,531,103740,59324
223366,14912.08746658227,1671630141.259,531,103740,59324
223367,14912.093087060997,1671630141.259,531,103668,59327
223367,14912.098707539724,1671630141.259,531,103668,59327
223368,14912.104328018451,1671630141.358,530,103739,59317
223368,14912.109948497178,1671630141.358,530,103739,59317
223369,14912.115568975905,1671630141.358,531,103649,59285
223369,14912.121189454632,1671630141.358,531,103649,59285
223370,14912.16812105877,1671630141.358,530,103712,59305
223370,14912.175800008861,1671630141.358,530,103712,59305
223371,14912.183478958952,1671630141.358,532,103687,59315
223371,14912.191157909043,1671630141.358,532,103687,59315
223372,14912.198836859134,1671630141.358,531,103687,59306
223372,14912.206515809225,1671630141.358,531,103687,59306
223373,14912.214194759315,1671630141.358,533,103647,59281
223373,14912.221873709406,1671630141.358,533,103647,59281
223374,14912.229552659497,1671630141.448,530,103695,59305
223374,14912.237231609588,1671630141.448,530,103695,59305
223375,14912.244910559679,1671630141.448,530,103669,59291
223375,14912.25258950977,1671630141.448,530,103669,59291
223376,14912.26026845986,1671630141.448,529,103761,59331
223376,14912.267947409951,1671630141.448,529,103761,59331
223377,14912.275626360042,1671630141.448,531,103676,59278
223377,14912.283305310133,1671630141.448,531,103676,59278
223378,14912.290984260224,1671630141.448,532,103675,59302
223378,14912.298663210315,1671630141.448,532,103675,59302
223379,14912.306342160406,1671630141.448,532,103735,59292
223379,14912.314021110496,1671630141.448,532,103735,59292
223380,14912.32395012968,1671630141.548,532,103701,59309
223380,14912.330998167809,1671630141.548,532,103701,59309
223381,14912.338046205938,1671630141.548,531,103776,59314
223381,14912.345094244067,1671630141.548,531,103776,59314
223382,14912.352142282196,1671630141.548,531,103712,59290
223382,14912.359190320325,1671630141.548,531,103712,59290
223383,14912.366238358454,1671630141.548,530,103670,59305
223383,14912.373286396583,1671630141.548,530,103670,59305
223384,14912.380334434712,1671630141.548,531,103702,59315
223384,14912.387382472842,1671630141.548,531,103702,59315
223385,14912.39443051097,1671630141.548,531,103758,59319
223385,14912.4014785491,1671630141.548,531,103758,59319
223386,14912.408526587229,1671630141.631,531,103725,59288
223386,14912.415574625358,1671630141.631,531,103725,59288
223387,14912.422622663487,1671630141.631,532,103745,59323
223387,14912.429670701616,1671630141.631,532,103745,59323
223388,14912.436718739746,1671630141.631,530,103717,59318
223388,14912.443766777875,1671630141.631,530,103717,59318
223389,14912.450814816004,1671630141.631,531,103663,59307
223389,14912.457862854133,1671630141.631,531,103663,59307
223390,14912.477960277332,1671630141.631,528,103765,59330
223390,14912.48450639331,1671630141.631,528,103765,59330
223391,14912.491052509287,1671630141.631,529,103710,59317
223391,14912.497598625265,1671630141.631,529,103710,59317
223392,14912.504144741242,1671630141.736,530,103765,59326
223392,14912.51069085722,1671630141.736,530,103765,59326
223393,14912.517236973197,1671630141.736,531,103731,59329
223393,14912.523783089175,1671630141.736,531,103731,59329
223394,14912.530329205152,1671630141.736,530,103725,59302
223394,14912.53687532113,1671630141.736,530,103725,59302
223395,14912.543421437107,1671630141.736,533,103775,59347
223395,14912.549967553085,1671630141.736,533,103775,59347
223396,14912.556513669062,1671630141.736,532,103714,59340
223396,14912.56305978504,1671630141.736,532,103714,59340
223397,14912.569605901017,1671630141.736,531,103765,59315
223397,14912.576152016994,1671630141.736,531,103765,59315
223398,14912.582698132972,1671630141.824,530,103727,59338
223398,14912.58924424895,1671630141.824,530,103727,59338
223399,14912.595790364927,1671630141.824,532,103792,59367
223399,14912.602336480904,1671630141.824,532,103792,59367
223400,14912.641478723834,1671630141.824,531,103834,59357
223400,14912.648758917025,1671630141.824,531,103834,59357
223401,14912.656039110216,1671630141.824,530,103786,59367
223401,14912.663319303407,1671630141.824,530,103786,59367
223402,14912.670599496598,1671630141.824,530,103874,59375
223402,14912.677879689789,1671630141.824,530,103874,59375
223403,14912.68515988298,1671630141.824,531,103737,59349
223403,14912.69244007617,1671630141.824,531,103737,59349
223404,14912.699720269362,1671630141.916,531,103857,59381
223404,14912.707000462553,1671630141.916,531,103857,59381
223405,14912.714280655744,1671630141.916,532,103815,59380
223405,14912.721560848935,1671630141.916,532,103815,59380
223406,14912.728841042126,1671630141.916,531,103798,59389
223406,14912.736121235317,1671630141.916,531,103798,59389
223407,14912.743401428508,1671630141.916,529,103850,59392
223407,14912.7506816217,1671630141.916,529,103850,59392
223408,14912.75796181489,1671630141.916,530,103772,59378
223408,14912.765242008081,1671630141.916,530,103772,59378
223409,14912.772522201272,1671630141.916,530,103912,59395
223409,14912.779802394463,1671630141.916,530,103912,59395
223410,14912.792174993234,1671630142.006,530,103866,59382
223410,14912.799383313046,1671630142.006,530,103866,59382
223411,14912.806591632858,1671630142.006,531,103830,59375
223411,14912.81379995267,1671630142.006,531,103830,59375
223412,14912.821008272482,1671630142.006,531,103780,59359
223412,14912.828216592294,1671630142.006,531,103780,59359
223413,14912.835424912106,1671630142.006,531,103817,59352
223413,14912.842633231918,1671630142.006,531,103817,59352
223414,14912.84984155173,1671630142.006,530,103736,59369
223414,14912.857049871542,1671630142.006,530,103736,59369
223415,14912.864258191354,1671630142.006,530,103647,59347
223415,14912.871466511166,1671630142.006,530,103647,59347
223416,14912.878674830978,1671630142.107,530,103722,59349
223416,14912.88588315079,1671630142.107,530,103722,59349
223417,14912.893091470602,1671630142.107,530,103667,59360
223417,14912.900299790414,1671630142.107,530,103667,59360
223418,14912.907508110226,1671630142.107,531,103688,59337
223418,14912.914716430038,1671630142.107,531,103688,59337
223419,14912.92192474985,1671630142.107,531,103715,59324
223419,14912.929133069661,1671630142.107,531,103715,59324
223420,14912.949956072762,1671630142.107,531,103653,59291
223420,14912.957767367518,1671630142.107,531,103653,59291
223421,14912.965578662273,1671630142.107,530,103674,59328
223421,14912.97338995703,1671630142.107,530,103674,59328
223422,14912.981201251785,1671630142.199,531,103641,59310
223422,14912.98901254654,1671630142.199,531,103641,59310
223423,14912.996823841297,1671630142.199,529,103690,59303
223423,14913.004635136052,1671630142.199,529,103690,59303
223424,14913.012446430808,1671630142.199,529,103479,59288
223424,14913.020257725564,1671630142.199,529,103479,59288
223425,14913.02806902032,1671630142.199,531,103603,59297
223425,14913.035880315076,1671630142.199,531,103603,59297
223426,14913.043691609832,1671630142.199,530,103554,59265
223426,14913.051502904587,1671630142.199,530,103554,59265
223427,14913.059314199343,1671630142.199,532,103675,59305
223427,14913.067125494099,1671630142.199,532,103675,59305
223428,14913.074936788855,1671630142.289,530,103547,59278
223428,14913.08274808361,1671630142.289,530,103547,59278
223429,14913.090559378366,1671630142.289,530,103561,59263
223429,14913.098370673122,1671630142.289,530,103561,59263
223430,14913.104709754474,1671630142.289,529,103618,59293
223430,14913.111764333857,1671630142.289,529,103618,59293
223431,14913.118818913239,1671630142.289,529,103575,59268
223431,14913.125873492621,1671630142.289,529,103575,59268
223432,14913.132928072004,1671630142.289,528,103525,59266
223432,14913.139982651386,1671630142.289,528,103525,59266
223433,14913.147037230769,1671630142.289,528,103542,59274
223433,14913.154091810151,1671630142.289,528,103542,59274
223434,14913.161146389533,1671630142.378,529,103503,59264
223434,14913.168200968916,1671630142.378,529,103503,59264
223435,14913.175255548298,1671630142.378,531,103468,59223
223435,14913.18231012768,1671630142.378,531,103468,59223
223436,14913.189364707063,1671630142.378,531,103464,59237
223436,14913.196419286445,1671630142.378,531,103464,59237
223437,14913.203473865828,1671630142.378,531,103460,59258
223437,14913.21052844521,1671630142.378,531,103460,59258
223438,14913.217583024592,1671630142.378,530,103496,59212
223438,14913.224637603975,1671630142.378,530,103496,59212
223439,14913.231692183357,1671630142.378,528,103527,59270
223439,14913.23874676274,1671630142.378,528,103527,59270
223440,14913.253436408982,1671630142.486,529,103443,59236
223440,14913.26040929362,1671630142.486,529,103443,59236
223441,14913.267382178257,1671630142.486,529,103504,59248
223441,14913.274355062895,1671630142.486,529,103504,59248
223442,14913.281327947532,1671630142.486,530,103397,59231
223442,14913.28830083217,1671630142.486,530,103397,59231
223443,14913.295273716807,1671630142.486,532,103471,59254
223443,14913.302246601444,1671630142.486,532,103471,59254
223444,14913.309219486082,1671630142.486,532,103523,59258
223444,14913.31619237072,1671630142.486,532,103523,59258
223445,14913.323165255357,1671630142.486,531,103509,59267
223445,14913.330138139994,1671630142.486,531,103509,59267
223446,14913.337111024632,1671630142.635,529,103521,59265
223446,14913.34408390927,1671630142.635,529,103521,59265
223447,14913.351056793907,1671630142.635,528,103523,59249
223447,14913.358029678544,1671630142.635,528,103523,59249
223448,14913.365002563181,1671630142.635,530,103497,59246
223448,14913.371975447819,1671630142.635,530,103497,59246
223449,14913.378948332456,1671630142.635,530,103543,59268
223449,14913.385921217094,1671630142.635,530,103543,59268
223450,14913.466620732072,1671630142.635,530,103450,59276
223450,14913.478130877047,1671630142.635,530,103450,59276
223451,14913.489641022023,1671630142.635,530,103501,59260
223451,14913.501151166998,1671630142.635,530,103501,59260
223452,14913.512661311974,1671630142.665,531,103538,59280
223452,14913.52417145695,1671630142.665,531,103538,59280
223453,14913.535681601925,1671630142.665,530,103459,59283
223453,14913.5471917469,1671630142.665,530,103459,59283
223454,14913.558701891876,1671630142.665,531,103510,59292
223454,14913.570212036851,1671630142.665,531,103510,59292
223455,14913.581722181827,1671630142.665,530,103583,59291
223455,14913.593232326803,1671630142.665,530,103583,59291
223456,14913.604742471778,1671630142.665,530,103559,59282
223456,14913.616252616754,1671630142.665,530,103559,59282
223457,14913.62776276173,1671630142.665,531,103481,59297
223457,14913.639272906705,1671630142.665,531,103481,59297
223458,14913.65078305168,1671630142.755,530,103552,59305
223458,14913.662293196656,1671630142.755,530,103552,59305
223459,14913.673803341631,1671630142.755,531,103465,59305
223459,14913.685313486607,1671630142.755,531,103465,59305
223460,14913.568186515517,1671630142.755,532,103521,59313
223460,14913.573852130889,1671630142.755,532,103521,59313
223461,14913.57951774626,1671630142.755,531,103567,59314
223461,14913.585183361633,1671630142.755,531,103567,59314
223462,14913.590848977004,1671630142.755,531,103542,59323
223462,14913.596514592376,1671630142.755,531,103542,59323
223463,14913.602180207748,1671630142.755,530,103559,59336
223463,14913.60784582312,1671630142.755,530,103559,59336
223464,14913.613511438492,1671630142.85,529,103666,59327
223464,14913.619177053864,1671630142.85,529,103666,59327
223465,14913.624842669236,1671630142.85,530,103579,59322
223465,14913.630508284608,1671630142.85,530,103579,59322
223466,14913.63617389998,1671630142.85,533,103608,59349
223466,14913.641839515352,1671630142.85,533,103608,59349
223467,14913.647505130724,1671630142.85,532,103615,59354
223467,14913.653170746096,1671630142.85,532,103615,59354
223468,14913.658836361468,1671630142.85,532,103623,59377
223468,14913.66450197684,1671630142.85,532,103623,59377
223469,14913.670167592212,1671630142.85,530,103621,59381
223469,14913.675833207584,1671630142.85,530,103621,59381
223470,14913.72547640896,1671630142.948,531,103581,59363
223470,14913.732826311447,1671630142.948,531,103581,59363
223471,14913.740176213934,1671630142.948,530,103565,59356
223471,14913.747526116422,1671630142.948,530,103565,59356
223472,14913.75487601891,1671630142.948,529,103709,59396
223472,14913.762225921397,1671630142.948,529,103709,59396
223473,14913.769575823884,1671630142.948,530,103641,59381
223473,14913.776925726372,1671630142.948,530,103641,59381
223474,14913.78427562886,1671630142.948,531,103650,59365
223474,14913.791625531347,1671630142.948,531,103650,59365
223475,14913.798975433834,1671630142.948,531,103709,59432
223475,14913.806325336322,1671630142.948,531,103709,59432
223476,14913.813675238809,1671630143.043,532,103672,59420
223476,14913.821025141297,1671630143.043,532,103672,59420
223477,14913.828375043784,1671630143.043,531,103701,59438
223477,14913.835724946272,1671630143.043,531,103701,59438
223478,14913.843074848759,1671630143.043,530,103724,59425
223478,14913.850424751246,1671630143.043,530,103724,59425
223479,14913.857774653734,1671630143.043,531,103678,59406
223479,14913.865124556221,1671630143.043,531,103678,59406
223480,14913.887606698334,1671630143.043,530,103681,59415
223480,14913.895080585233,1671630143.043,530,103681,59415
223481,14913.902554472132,1671630143.043,531,103574,59413
223481,14913.91002835903,1671630143.043,531,103574,59413
223482,14913.91750224593,1671630143.135,531,103587,59398
223482,14913.924976132828,1671630143.135,531,103587,59398
223483,14913.932450019727,1671630143.135,532,103603,59389
223483,14913.939923906626,1671630143.135,532,103603,59389
223484,14913.947397793525,1671630143.135,531,103546,59397
223484,14913.954871680424,1671630143.135,531,103546,59397
223485,14913.962345567323,1671630143.135,531,103529,59362
223485,14913.969819454222,1671630143.135,531,103529,59362
223486,14913.97729334112,1671630143.135,530,103494,59385
223486,14913.98476722802,1671630143.135,530,103494,59385
223487,14913.992241114918,1671630143.135,529,103561,59372
223487,14913.999715001817,1671630143.135,529,103561,59372
223488,14914.007188888716,1671630143.236,530,103543,59391
223488,14914.014662775615,1671630143.236,530,103543,59391
223489,14914.022136662514,1671630143.236,530,103565,59389
223489,14914.029610549413,1671630143.236,530,103565,59389
223490,14914.044599041841,1671630143.236,530,103447,59361
223490,14914.052256459483,1671630143.236,530,103447,59361
223491,14914.059913877125,1671630143.236,532,103471,59375
223491,14914.067571294767,1671630143.236,532,103471,59375
223492,14914.075228712409,1671630143.236,532,103455,59351
223492,14914.08288613005,1671630143.236,532,103455,59351
223493,14914.090543547693,1671630143.236,532,103477,59337
223493,14914.098200965334,1671630143.236,532,103477,59337
223494,14914.105858382976,1671630143.323,531,103479,59345
223494,14914.113515800618,1671630143.323,531,103479,59345
223495,14914.12117321826,1671630143.323,530,103509,59349
223495,14914.128830635902,1671630143.323,530,103509,59349
223496,14914.136488053544,1671630143.323,530,103449,59341
223496,14914.144145471186,1671630143.323,530,103449,59341
223497,14914.151802888828,1671630143.323,532,103510,59368
223497,14914.15946030647,1671630143.323,532,103510,59368
223498,14914.167117724111,1671630143.323,531,103474,59354
223498,14914.174775141753,1671630143.323,531,103474,59354
223499,14914.182432559395,1671630143.323,533,103456,59352
223499,14914.190089977037,1671630143.323,533,103456,59352
223500,14914.197849305727,1671630143.426,532,103465,59347
223500,14914.204660304942,1671630143.426,532,103465,59347
223501,14914.211471304157,1671630143.426,532,103418,59350
223501,14914.218282303373,1671630143.426,532,103418,59350
223502,14914.225093302588,1671630143.426,530,103445,59352
223502,14914.231904301803,1671630143.426,530,103445,59352
223503,14914.238715301019,1671630143.426,529,103498,59378
223503,14914.245526300234,1671630143.426,529,103498,59378
223504,14914.25233729945,1671630143.426,528,103444,59346
223504,14914.259148298665,1671630143.426,528,103444,59346
223505,14914.26595929788,1671630143.426,530,103394,59348
223505,14914.272770297095,1671630143.426,530,103394,59348
223506,14914.27958129631,1671630143.506,530,103427,59337
223506,14914.286392295526,1671630143.506,530,103427,59337
223507,14914.293203294741,1671630143.506,532,103411,59349
223507,14914.300014293956,1671630143.506,532,103411,59349
223508,14914.306825293172,1671630143.506,531,103388,59347
223508,14914.313636292387,1671630143.506,531,103388,59347
223509,14914.320447291602,1671630143.506,531,103446,59358
223509,14914.327258290818,1671630143.506,531,103446,59358
223510,14914.354306284395,1671630143.506,532,103340,59334
223510,14914.360715317003,1671630143.506,532,103340,59334
223511,14914.367124349612,1671630143.506,530,103426,59354
223511,14914.37353338222,1671630143.506,530,103426,59354
223512,14914.37994241483,1671630143.594,530,103430,59363
223512,14914.386351447438,1671630143.594,530,103430,59363
223513,14914.392760480046,1671630143.594,531,103427,59368
223513,14914.399169512655,1671630143.594,531,103427,59368
223514,14914.405578545264,1671630143.594,530,103440,59357
223514,14914.411987577872,1671630143.594,530,103440,59357
223515,14914.418396610481,1671630143.594,531,103434,59369
223515,14914.42480564309,1671630143.594,531,103434,59369
223516,14914.431214675698,1671630143.594,531,103427,59342
223516,14914.437623708307,1671630143.594,531,103427,59342
223517,14914.444032740916,1671630143.594,533,103430,59363
223517,14914.450441773524,1671630143.594,533,103430,59363
223518,14914.456850806133,1671630143.706,531,103391,59371
223518,14914.463259838742,1671630143.706,531,103391,59371
223519,14914.46966887135,1671630143.706,530,103470,59396
223519,14914.476077903959,1671630143.706,530,103470,59396
223520,14914.507703603898,1671630143.706,531,103493,59391
223520,14914.51587668531,1671630143.706,531,103493,59391
223521,14914.52404976672,1671630143.706,531,103453,59393
223521,14914.532222848131,1671630143.706,531,103453,59393
223522,14914.540395929542,1671630143.706,531,103436,59372
223522,14914.548569010953,1671630143.706,531,103436,59372
223523,14914.556742092363,1671630143.706,533,103502,59389
223523,14914.564915173774,1671630143.706,533,103502,59389
223524,14914.573088255185,1671630143.789,533,103460,59398
223524,14914.581261336596,1671630143.789,533,103460,59398
223525,14914.589434418007,1671630143.789,531,103489,59411
223525,14914.597607499418,1671630143.789,531,103489,59411
223526,14914.605780580829,1671630143.789,530,103436,59399
223526,14914.61395366224,1671630143.789,530,103436,59399
223527,14914.62212674365,1671630143.789,532,103501,59426
223527,14914.630299825061,1671630143.789,532,103501,59426
223528,14914.638472906472,1671630143.789,529,103459,59435
223528,14914.646645987883,1671630143.789,529,103459,59435
223529,14914.654819069294,1671630143.789,530,103474,59414
223529,14914.662992150705,1671630143.789,530,103474,59414
223530,14914.663486829175,1671630143.878,530,103428,59417
223530,14914.669992967798,1671630143.878,530,103428,59417
223531,14914.676499106421,1671630143.878,531,103524,59425
223531,14914.683005245044,1671630143.878,531,103524,59425
223532,14914.689511383667,1671630143.878,531,103484,59420
223532,14914.69601752229,1671630143.878,531,103484,59420
223533,14914.702523660913,1671630143.878,532,103480,59415
223533,14914.709029799536,1671630143.878,532,103480,59415
223534,14914.71553593816,1671630143.878,531,103453,59447
223534,14914.722042076783,1671630143.878,531,103453,59447
223535,14914.728548215406,1671630143.878,531,103462,59452
223535,14914.735054354029,1671630143.878,531,103462,59452
223536,14914.741560492652,1671630143.987,530,103577,59451
223536,14914.748066631275,1671630143.987,530,103577,59451
223537,14914.754572769898,1671630143.987,531,103545,59473
223537,14914.761078908521,1671630143.987,531,103545,59473
223538,14914.767585047144,1671630143.987,530,103554,59478
223538,14914.774091185767,1671630143.987,530,103554,59478
223539,14914.78059732439,1671630143.987,533,103582,59478
223539,14914.787103463013,1671630143.987,533,103582,59478
223540,14914.828164095386,1671630143.987,532,103568,59472
223540,14914.836569012119,1671630143.987,532,103568,59472
223541,14914.844973928852,1671630143.987,531,103605,59480
223541,14914.853378845584,1671630143.987,531,103605,59480
223542,14914.861783762317,1671630144.073,530,103582,59480
223542,14914.87018867905,1671630144.073,530,103582,59480
223543,14914.878593595782,1671630144.073,530,103618,59485
223543,14914.886998512515,1671630144.073,530,103618,59485
223544,14914.895403429247,1671630144.073,529,103579,59487
223544,14914.90380834598,1671630144.073,529,103579,59487
223545,14914.912213262713,1671630144.073,531,103519,59483
223545,14914.920618179445,1671630144.073,531,103519,59483
223546,14914.929023096178,1671630144.073,530,103509,59456
223546,14914.93742801291,1671630144.073,530,103509,59456
223547,14914.945832929643,1671630144.073,532,103441,59432
223547,14914.954237846376,1671630144.073,532,103441,59432
223548,14914.962642763108,1671630144.167,533,103477,59455
223548,14914.971047679841,1671630144.167,533,103477,59455
223549,14914.979452596574,1671630144.167,531,103481,59438
223549,14914.987857513306,1671630144.167,531,103481,59438
223550,14914.979860670494,1671630144.167,531,103475,59456
223550,14914.987051259493,1671630144.167,531,103475,59456
223551,14914.994241848493,1671630144.167,532,103355,59432
223551,14915.001432437493,1671630144.167,532,103355,59432
223552,14915.008623026493,1671630144.167,529,103496,59470
223552,14915.015813615493,1671630144.167,529,103496,59470
223553,14915.023004204493,1671630144.167,530,103369,59435
223553,14915.030194793493,1671630144.167,530,103369,59435
223554,14915.037385382493,1671630144.257,531,103392,59414
223554,14915.044575971493,1671630144.257,531,103392,59414
223555,14915.051766560493,1671630144.257,532,103386,59412
223555,14915.058957149493,1671630144.257,532,103386,59412
223556,14915.066147738493,1671630144.257,531,103397,59422
223556,14915.073338327493,1671630144.257,531,103397,59422
223557,14915.080528916493,1671630144.257,532,103258,59412
223557,14915.087719505493,1671630144.257,532,103258,59412
223558,14915.094910094493,1671630144.257,532,103358,59411
223558,14915.102100683493,1671630144.257,532,103358,59411
223559,14915.109291272493,1671630144.257,531,103358,59398
223559,14915.116481861493,1671630144.257,531,103358,59398
223560,14915.132680492545,1671630144.344,529,103292,59385
223560,14915.1396970635,1671630144.344,529,103292,59385
223561,14915.146713634454,1671630144.344,530,103355,59402
223561,14915.15373020541,1671630144.344,530,103355,59402
223562,14915.160746776364,1671630144.344,530,103347,59407
223562,14915.16776334732,1671630144.344,530,103347,59407
223563,14915.174779918274,1671630144.344,532,103264,59393
223563,14915.181796489229,1671630144.344,532,103264,59393
223564,14915.188813060184,1671630144.344,530,103299,59410
223564,14915.195829631139,1671630144.344,530,103299,59410
223565,14915.202846202093,1671630144.344,532,103222,59382
223565,14915.209862773048,1671630144.344,532,103222,59382
223566,14915.216879344003,1671630144.447,531,103236,59384
223566,14915.223895914958,1671630144.447,531,103236,59384
223567,14915.230912485913,1671630144.447,530,103229,59358
223567,14915.237929056868,1671630144.447,530,103229,59358
223568,14915.244945627823,1671630144.447,531,103195,59355
223568,14915.251962198778,1671630144.447,531,103195,59355
223569,14915.258978769732,1671630144.447,530,103276,59396
223569,14915.265995340687,1671630144.447,530,103276,59396
223570,14915.289197105409,1671630144.447,531,103180,59367
223570,14915.297162123143,1671630144.447,531,103180,59367
223571,14915.305127140877,1671630144.447,531,103242,59371
223571,14915.31309215861,1671630144.447,531,103242,59371
223572,14915.321057176345,1671630144.539,530,103295,59399
223572,14915.329022194079,1671630144.539,530,103295,59399
223573,14915.336987211813,1671630144.539,530,103270,59400
223573,14915.344952229547,1671630144.539,530,103270,59400
223574,14915.35291724728,1671630144.539,531,103210,59355
223574,14915.360882265015,1671630144.539,531,103210,59355
223575,14915.368847282749,1671630144.539,530,103298,59401
223575,14915.376812300483,1671630144.539,530,103298,59401
223576,14915.384777318217,1671630144.539,530,103280,59390
223576,14915.392742335951,1671630144.539,530,103280,59390
223577,14915.400707353685,1671630144.539,531,103310,59397
223577,14915.408672371419,1671630144.539,531,103310,59397
223578,14915.416637389153,1671630144.628,532,103243,59391
223578,14915.424602406887,1671630144.628,532,103243,59391
223579,14915.432567424621,1671630144.628,531,103276,59393
223579,14915.440532442355,1671630144.628,531,103276,59393
223580,14915.443858502998,1671630144.628,531,103263,59401
223580,14915.450886668867,1671630144.628,531,103263,59401
223581,14915.457914834735,1671630144.628,531,103322,59435
223581,14915.464943000603,1671630144.628,531,103322,59435
223582,14915.471971166471,1671630144.628,530,103220,59389
223582,14915.47899933234,1671630144.628,530,103220,59389
223583,14915.486027498207,1671630144.628,530,103276,59392
223583,14915.493055664076,1671630144.628,530,103276,59392
223584,14915.500083829944,1671630144.723,530,103255,59408
223584,14915.507111995812,1671630144.723,530,103255,59408
223585,14915.51414016168,1671630144.723,530,103239,59399
223585,14915.521168327548,1671630144.723,530,103239,59399
223586,14915.528196493417,1671630144.723,530,103258,59412
223586,14915.535224659285,1671630144.723,530,103258,59412
223587,14915.542252825153,1671630144.723,532,103289,59434
223587,14915.549280991021,1671630144.723,532,103289,59434
223588,14915.55630915689,1671630144.723,532,103291,59422
223588,14915.563337322757,1671630144.723,532,103291,59422
223589,14915.570365488626,1671630144.723,531,103307,59444
223589,14915.577393654494,1671630144.723,531,103307,59444
223590,14915.598954356676,1671630144.824,531,103344,59448
223590,14915.606383917215,1671630144.824,531,103344,59448
223591,14915.613813477754,1671630144.824,530,103308,59450
223591,14915.621243038293,1671630144.824,530,103308,59450
223592,14915.628672598832,1671630144.824,530,103375,59455
223592,14915.636102159371,1671630144.824,530,103375,59455
223593,14915.64353171991,1671630144.824,530,103367,59463
223593,14915.65096128045,1671630144.824,530,103367,59463
223594,14915.658390840988,1671630144.824,530,103314,59434
223594,14915.665820401528,1671630144.824,530,103314,59434
223595,14915.673249962067,1671630144.824,531,103427,59492
223595,14915.680679522606,1671630144.824,531,103427,59492
223596,14915.688109083145,1671630144.913,531,103335,59466
223596,14915.695538643684,1671630144.913,531,103335,59466
223597,14915.702968204223,1671630144.913,532,103331,59469
223597,14915.710397764762,1671630144.913,532,103331,59469
223598,14915.717827325301,1671630144.913,531,103311,59481
223598,14915.72525688584,1671630144.913,531,103311,59481
223599,14915.73268644638,1671630144.913,530,103416,59490
223599,14915.740116006918,1671630144.913,530,103416,59490
223600,14915.758761687639,1671630144.913,531,103349,59500
223600,14915.765759137474,1671630144.913,531,103349,59500
223601,14915.772756587308,1671630144.913,530,103453,59518
223601,14915.779754037143,1671630144.913,530,103453,59518
223602,14915.786751486978,1671630145.003,531,103458,59506
223602,14915.793748936812,1671630145.003,531,103458,59506
223603,14915.800746386647,1671630145.003,532,103360,59476
223603,14915.807743836482,1671630145.003,532,103360,59476
223604,14915.814741286316,1671630145.003,531,103371,59504
223604,14915.821738736151,1671630145.003,531,103371,59504
223605,14915.828736185986,1671630145.003,531,103378,59514
223605,14915.83573363582,1671630145.003,531,103378,59514
223606,14915.842731085655,1671630145.003,530,103433,59526
223606,14915.84972853549,1671630145.003,530,103433,59526
223607,14915.856725985324,1671630145.003,530,103465,59547
223607,14915.863723435159,1671630145.003,530,103465,59547
223608,14915.870720884994,1671630145.108,529,103456,59555
223608,14915.877718334828,1671630145.108,529,103456,59555
223609,14915.884715784663,1671630145.108,531,103408,59543
223609,14915.891713234498,1671630145.108,531,103408,59543
223610,14915.914131584366,1671630145.108,531,103428,59554
223610,14915.922011606892,1671630145.108,531,103428,59554
223611,14915.929891629417,1671630145.108,531,103458,59558
223611,14915.937771651943,1671630145.108,531,103458,59558
223612,14915.945651674469,1671630145.108,531,103435,59562
223612,14915.953531696994,1671630145.108,531,103435,59562
223613,14915.96141171952,1671630145.108,531,103437,59535
223613,14915.969291742045,1671630145.108,531,103437,59535
223614,14915.97717176457,1671630145.197,531,103424,59524
223614,14915.985051787096,1671630145.197,531,103424,59524
223615,14915.992931809622,1671630145.197,530,103384,59515
223615,14916.000811832148,1671630145.197,530,103384,59515
223616,14916.008691854673,1671630145.197,529,103391,59529
223616,14916.016571877199,1671630145.197,529,103391,59529
223617,14916.024451899724,1671630145.197,530,103388,59525
223617,14916.03233192225,1671630145.197,530,103388,59525
223618,14916.040211944775,1671630145.197,530,103278,59517
223618,14916.048091967301,1671630145.197,530,103278,59517
223619,14916.055971989827,1671630145.197,531,103322,59507
223619,14916.063852012352,1671630145.197,531,103322,59507
223620,14916.072541353433,1671630145.29,532,103367,59512
223620,14916.079506609727,1671630145.29,532,103367,59512
223621,14916.086471866021,1671630145.29,532,103284,59489
223621,14916.093437122316,1671630145.29,532,103284,59489
223622,14916.10040237861,1671630145.29,530,103397,59512
223622,14916.107367634904,1671630145.29,530,103397,59512
223623,14916.114332891199,1671630145.29,531,103227,59501
223623,14916.121298147493,1671630145.29,531,103227,59501
223624,14916.128263403787,1671630145.29,529,103238,59496
223624,14916.135228660081,1671630145.29,529,103238,59496
223625,14916.142193916376,1671630145.29,532,103285,59534
223625,14916.14915917267,1671630145.29,532,103285,59534
223626,14916.156124428964,1671630145.38,531,103204,59466
223626,14916.163089685258,1671630145.38,531,103204,59466
223627,14916.170054941553,1671630145.38,532,103242,59464
223627,14916.177020197847,1671630145.38,532,103242,59464
223628,14916.183985454141,1671630145.38,531,103220,59466
223628,14916.190950710436,1671630145.38,531,103220,59466
223629,14916.19791596673,1671630145.38,530,103289,59474
223629,14916.204881223024,1671630145.38,530,103289,59474
223630,14916.225787322355,1671630145.38,529,103164,59482
223630,14916.232894602796,1671630145.38,529,103164,59482
223631,14916.240001883236,1671630145.38,529,103167,59469
223631,14916.247109163676,1671630145.38,529,103167,59469
223632,14916.254216444117,1671630145.468,529,103193,59472
223632,14916.261323724557,1671630145.468,529,103193,59472
223633,14916.268431004997,1671630145.468,529,103220,59452
223633,14916.275538285438,1671630145.468,529,103220,59452
223634,14916.282645565878,1671630145.468,531,103113,59477
223634,14916.289752846318,1671630145.468,531,103113,59477
223635,14916.296860126758,1671630145.468,531,103171,59445
223635,14916.303967407199,1671630145.468,531,103171,59445
223636,14916.31107468764,1671630145.468,530,103239,59465
223636,14916.31818196808,1671630145.468,530,103239,59465
223637,14916.32528924852,1671630145.468,530,103073,59456
223637,14916.33239652896,1671630145.468,530,103073,59456
223638,14916.3395038094,1671630145.576,530,103228,59453
223638,14916.34661108984,1671630145.576,530,103228,59453
223639,14916.353718370281,1671630145.576,531,103038,59455
223639,14916.360825650721,1671630145.576,531,103038,59455
223640,14916.38077347545,1671630145.576,529,103067,59450
223640,14916.388734858861,1671630145.576,529,103067,59450
223641,14916.396696242273,1671630145.576,530,103133,59470
223641,14916.404657625684,1671630145.576,530,103133,59470
223642,14916.412619009096,1671630145.576,530,103128,59435
223642,14916.420580392507,1671630145.576,530,103128,59435
223643,14916.428541775918,1671630145.576,531,103059,59463
223643,14916.43650315933,1671630145.576,531,103059,59463
223644,14916.444464542741,1671630145.663,531,103163,59457
223644,14916.452425926153,1671630145.663,531,103163,59457
223645,14916.460387309564,1671630145.663,530,103063,59470
223645,14916.468348692975,1671630145.663,530,103063,59470
223646,14916.476310076387,1671630145.663,529,103192,59486
223646,14916.484271459798,1671630145.663,529,103192,59486
223647,14916.49223284321,1671630145.663,530,103138,59444
223647,14916.50019422662,1671630145.663,530,103138,59444
223648,14916.508155610032,1671630145.663,528,103182,59467
223648,14916.516116993444,1671630145.663,528,103182,59467
223649,14916.524078376855,1671630145.663,532,103075,59471
223649,14916.532039760266,1671630145.663,532,103075,59471
223650,14916.538284986995,1671630145.752,530,103156,59448
223650,14916.545088679355,1671630145.752,530,103156,59448
223651,14916.551892371715,1671630145.752,532,103139,59470
223651,14916.558696064076,1671630145.752,532,103139,59470
223652,14916.565499756436,1671630145.752,530,103169,59468
223652,14916.572303448796,1671630145.752,530,103169,59468
223653,14916.579107141157,1671630145.752,531,103242,59498
223653,14916.585910833517,1671630145.752,531,103242,59498
223654,14916.592714525877,1671630145.752,529,103174,59470
223654,14916.599518218238,1671630145.752,529,103174,59470
223655,14916.606321910598,1671630145.752,529,103173,59481
223655,14916.613125602958,1671630145.752,529,103173,59481
223656,14916.619929295319,1671630145.848,530,103189,59509
223656,14916.62673298768,1671630145.848,530,103189,59509
223657,14916.63353668004,1671630145.848,529,103172,59484
223657,14916.6403403724,1671630145.848,529,103172,59484
223658,14916.64714406476,1671630145.848,531,103182,59514
223658,14916.65394775712,1671630145.848,531,103182,59514
223659,14916.66075144948,1671630145.848,532,103238,59510
223659,14916.667555141841,1671630145.848,532,103238,59510
223660,14916.69221983969,1671630145.848,531,103278,59536
223660,14916.699691474643,1671630145.848,531,103278,59536
223661,14916.707163109597,1671630145.848,530,103304,59528
223661,14916.71463474455,1671630145.848,530,103304,59528
223662,14916.722106379504,1671630145.978,531,103218,59532
223662,14916.729578014458,1671630145.978,531,103218,59532
223663,14916.737049649411,1671630145.978,531,103269,59523
223663,14916.744521284365,1671630145.978,531,103269,59523
223664,14916.751992919319,1671630145.978,529,103321,59557
223664,14916.759464554272,1671630145.978,529,103321,59557
223665,14916.766936189226,1671630145.978,530,103261,59518
223665,14916.77440782418,1671630145.978,530,103261,59518
223666,14916.781879459133,1671630145.978,532,103152,59523
223666,14916.789351094087,1671630145.978,532,103152,59523
223667,14916.79682272904,1671630145.978,533,103209,59517
223667,14916.804294363994,1671630145.978,533,103209,59517
223668,14916.811765998948,1671630146.041,532,103300,59559
223668,14916.819237633901,1671630146.041,532,103300,59559
223669,14916.826709268855,1671630146.041,532,103265,59546
223669,14916.834180903808,1671630146.041,532,103265,59546
223670,14916.874978050317,1671630146.041,532,103266,59536
223670,14916.88145206083,1671630146.041,532,103266,59536
223671,14916.887926071344,1671630146.041,531,103306,59563
223671,14916.894400081857,1671630146.041,531,103306,59563
223672,14916.900874092371,1671630146.041,531,103353,59584
223672,14916.907348102884,1671630146.041,531,103353,59584
223673,14916.913822113398,1671630146.041,530,103362,59596
223673,14916.920296123912,1671630146.041,530,103362,59596
223674,14916.926770134425,1671630146.135,532,103337,59570
223674,14916.933244144939,1671630146.135,532,103337,59570
223675,14916.939718155452,1671630146.135,530,103389,59583
223675,14916.946192165966,1671630146.135,530,103389,59583
223676,14916.95266617648,1671630146.135,531,103380,59597
223676,14916.959140186993,1671630146.135,531,103380,59597
223677,14916.965614197507,1671630146.135,530,103326,59586
223677,14916.97208820802,1671630146.135,530,103326,59586
223678,14916.978562218534,1671630146.135,530,103330,59602
223678,14916.985036229047,1671630146.135,530,103330,59602
223679,14916.99151023956,1671630146.135,530,103420,59612
223679,14916.997984250074,1671630146.135,530,103420,59612
223680,14917.010611757294,1671630146.218,530,103384,59631
223680,14917.017891258562,1671630146.218,530,103384,59631
223681,14917.025170759829,1671630146.218,532,103282,59609
223681,14917.032450261097,1671630146.218,532,103282,59609
223682,14917.039729762364,1671630146.218,530,103330,59580
223682,14917.047009263631,1671630146.218,530,103330,59580
223683,14917.054288764899,1671630146.218,531,103405,59609
223683,14917.061568266166,1671630146.218,531,103405,59609
223684,14917.068847767434,1671630146.218,532,103338,59584
223684,14917.076127268701,1671630146.218,532,103338,59584
223685,14917.083406769969,1671630146.218,532,103310,59582
223685,14917.090686271236,1671630146.218,532,103310,59582
223686,14917.097965772504,1671630146.326,530,103259,59587
223686,14917.105245273771,1671630146.326,530,103259,59587
223687,14917.112524775039,1671630146.326,530,103347,59584
223687,14917.119804276306,1671630146.326,530,103347,59584
223688,14917.127083777574,1671630146.326,530,103246,59575
223688,14917.134363278841,1671630146.326,530,103246,59575
223689,14917.141642780109,1671630146.326,530,103283,59589
223689,14917.148922281376,1671630146.326,530,103283,59589
223690,14917.166787883223,1671630146.326,532,103316,59592
223690,14917.175128964736,1671630146.326,532,103316,59592
223691,14917.18347004625,1671630146.326,531,103239,59577
223691,14917.191811127763,1671630146.326,531,103239,59577
223692,14917.200152209276,1671630146.416,531,103196,59547
223692,14917.20849329079,1671630146.416,531,103196,59547
223693,14917.216834372302,1671630146.416,531,103111,59547
223693,14917.225175453816,1671630146.416,531,103111,59547
223694,14917.233516535329,1671630146.416,531,103230,59554
223694,14917.241857616842,1671630146.416,531,103230,59554
223695,14917.250198698355,1671630146.416,529,103229,59552
223695,14917.258539779868,1671630146.416,529,103229,59552
223696,14917.266880861382,1671630146.416,531,103210,59553
223696,14917.275221942895,1671630146.416,531,103210,59553
223697,14917.283563024408,1671630146.416,528,103075,59524
223697,14917.291904105921,1671630146.416,528,103075,59524
223698,14917.300245187434,1671630146.506,532,103191,59549
223698,14917.308586268948,1671630146.506,532,103191,59549
223699,14917.31692735046,1671630146.506,532,103084,59531
223699,14917.325268431974,1671630146.506,532,103084,59531
223700,14917.321473117927,1671630146.506,531,103171,59542
223700,14917.328527026057,1671630146.506,531,103171,59542
223701,14917.335580934187,1671630146.506,532,103253,59547
223701,14917.342634842316,1671630146.506,532,103253,59547
223702,14917.349688750446,1671630146.506,530,103180,59533
223702,14917.356742658576,1671630146.506,530,103180,59533
223703,14917.363796566706,1671630146.506,531,103162,59548
223703,14917.370850474836,1671630146.506,531,103162,59548
223704,14917.377904382965,1671630146.607,530,103126,59533
223704,14917.384958291095,1671630146.607,530,103126,59533
223705,14917.392012199225,1671630146.607,530,103118,59531
223705,14917.399066107355,1671630146.607,530,103118,59531
223706,14917.406120015485,1671630146.607,531,103143,59546
223706,14917.413173923615,1671630146.607,531,103143,59546
223707,14917.420227831744,1671630146.607,532,103132,59537
223707,14917.427281739874,1671630146.607,532,103132,59537
223708,14917.434335648004,1671630146.607,532,103058,59538
223708,14917.441389556134,1671630146.607,532,103058,59538
223709,14917.448443464264,1671630146.607,530,103176,59544
223709,14917.455497372393,1671630146.607,530,103176,59544
223710,14917.48301814789,1671630146.698,530,103103,59557
223710,14917.490846728824,1671630146.698,530,103103,59557
223711,14917.498675309758,1671630146.698,529,103165,59528
223711,14917.506503890692,1671630146.698,529,103165,59528
223712,14917.514332471626,1671630146.698,528,103127,59537
223712,14917.52216105256,1671630146.698,528,103127,59537
223713,14917.529989633495,1671630146.698,532,103149,59547
223713,14917.537818214429,1671630146.698,532,103149,59547
223714,14917.545646795363,1671630146.698,529,103184,59542
223714,14917.553475376297,1671630146.698,529,103184,59542
223715,14917.56130395723,1671630146.698,533,103059,59513
223715,14917.569132538165,1671630146.698,533,103059,59513
223716,14917.576961119099,1671630146.789,531,103143,59527
223716,14917.584789700033,1671630146.789,531,103143,59527
223717,14917.592618280967,1671630146.789,532,103107,59544
223717,14917.600446861901,1671630146.789,532,103107,59544
223718,14917.608275442835,1671630146.789,530,103128,59558
223718,14917.61610402377,1671630146.789,530,103128,59558
223719,14917.623932604703,1671630146.789,530,103186,59565
223719,14917.631761185638,1671630146.789,530,103186,59565
223720,14917.634240095487,1671630146.789,528,103140,59567
223720,14917.641368215045,1671630146.789,528,103140,59567
223721,14917.648496334603,1671630146.789,530,103071,59541
223721,14917.65562445416,1671630146.789,530,103071,59541
223722,14917.662752573719,1671630146.883,532,103197,59558
223722,14917.669880693276,1671630146.883,532,103197,59558
223723,14917.677008812834,1671630146.883,532,103178,59551
223723,14917.684136932392,1671630146.883,532,103178,59551
223724,14917.69126505195,1671630146.883,531,103187,59564
223724,14917.698393171508,1671630146.883,531,103187,59564
223725,14917.705521291065,1671630146.883,531,103216,59589
223725,14917.712649410623,1671630146.883,531,103216,59589
223726,14917.719777530181,1671630146.883,531,103190,59543
223726,14917.726905649739,1671630146.883,531,103190,59543
223727,14917.734033769297,1671630146.883,529,103195,59563
223727,14917.741161888855,1671630146.883,529,103195,59563
223728,14917.748290008412,1671630146.968,529,103182,59575
223728,14917.75541812797,1671630146.968,529,103182,59575
223729,14917.762546247528,1671630146.968,532,103126,59564
223729,14917.769674367086,1671630146.968,532,103126,59564
223730,14917.786379128154,1671630146.968,530,103155,59580
223730,14917.793222730146,1671630146.968,530,103155,59580
223731,14917.800066332138,1671630146.968,532,103271,59611
223731,14917.80690993413,1671630146.968,532,103271,59611
223732,14917.813753536122,1671630146.968,533,103247,59585
223732,14917.820597138114,1671630146.968,533,103247,59585
223733,14917.827440740106,1671630146.968,530,103299,59607
223733,14917.834284342098,1671630146.968,530,103299,59607
223734,14917.84112794409,1671630147.075,531,103233,59599
223734,14917.847971546082,1671630147.075,531,103233,59599
223735,14917.854815148074,1671630147.075,530,103211,59589
223735,14917.861658750066,1671630147.075,530,103211,59589
223736,14917.868502352057,1671630147.075,531,103216,59590
223736,14917.87534595405,1671630147.075,531,103216,59590
223737,14917.882189556041,1671630147.075,531,103277,59617
223737,14917.889033158033,1671630147.075,531,103277,59617
223738,14917.895876760025,1671630147.075,531,103269,59609
223738,14917.902720362017,1671630147.075,531,103269,59609
223739,14917.909563964009,1671630147.075,533,103337,59641
223739,14917.916407566001,1671630147.075,533,103337,59641
223740,14917.951671398978,1671630147.167,532,103324,59629
223740,14917.959996691872,1671630147.167,532,103324,59629
223741,14917.968321984767,1671630147.167,531,103273,59625
223741,14917.976647277661,1671630147.167,531,103273,59625
223742,14917.984972570555,1671630147.167,530,103272,59607
223742,14917.99329786345,1671630147.167,530,103272,59607
223743,14918.001623156344,1671630147.167,530,103317,59639
223743,14918.009948449238,1671630147.167,530,103317,59639
223744,14918.018273742133,1671630147.167,528,103407,59656
223744,14918.026599035027,1671630147.167,528,103407,59656
223745,14918.034924327922,1671630147.167,530,103341,59649
223745,14918.043249620816,1671630147.167,530,103341,59649
223746,14918.05157491371,1671630147.255,531,103345,59641
223746,14918.059900206605,1671630147.255,531,103345,59641
223747,14918.068225499499,1671630147.255,532,103335,59626
223747,14918.076550792393,1671630147.255,532,103335,59626
223748,14918.084876085288,1671630147.255,531,103326,59637
223748,14918.093201378182,1671630147.255,531,103326,59637
223749,14918.101526671076,1671630147.255,531,103267,59638
223749,14918.10985196397,1671630147.255,531,103267,59638
223750,14918.101373246636,1671630147.255,532,103294,59627
223750,14918.108289572509,1671630147.255,532,103294,59627
223751,14918.11520589838,1671630147.255,532,103236,59604
223751,14918.122122224253,1671630147.255,532,103236,59604
223752,14918.129038550125,1671630147.346,529,103239,59618
223752,14918.135954875997,1671630147.346,529,103239,59618
223753,14918.14287120187,1671630147.346,530,103208,59614
223753,14918.149787527742,1671630147.346,530,103208,59614
223754,14918.156703853614,1671630147.346,531,103297,59612
223754,14918.163620179486,1671630147.346,531,103297,59612
223755,14918.170536505359,1671630147.346,531,103232,59626
223755,14918.17745283123,1671630147.346,531,103232,59626
223756,14918.184369157103,1671630147.346,532,103195,59606
223756,14918.191285482975,1671630147.346,532,103195,59606
223757,14918.198201808847,1671630147.346,531,103105,59596
223757,14918.20511813472,1671630147.346,531,103105,59596
223758,14918.212034460592,1671630147.449,531,103171,59591
223758,14918.218950786464,1671630147.449,531,103171,59591
223759,14918.225867112336,1671630147.449,530,103171,59604
223759,14918.232783438209,1671630147.449,530,103171,59604
223760,14918.256307909078,1671630147.449,531,103112,59559
223760,14918.264085769239,1671630147.449,531,103112,59559
223761,14918.2718636294,1671630147.449,530,103133,59602
223761,14918.27964148956,1671630147.449,530,103133,59602
223762,14918.287419349721,1671630147.449,530,103117,59589
223762,14918.295197209882,1671630147.449,530,103117,59589
223763,14918.302975070043,1671630147.449,532,103054,59577
223763,14918.310752930203,1671630147.449,532,103054,59577
223764,14918.318530790364,1671630147.538,531,103128,59581
223764,14918.326308650525,1671630147.538,531,103128,59581
223765,14918.334086510686,1671630147.538,530,103168,59572
223765,14918.341864370846,1671630147.538,530,103168,59572
223766,14918.349642231007,1671630147.538,532,103134,59572
223766,14918.357420091168,1671630147.538,532,103134,59572
223767,14918.365197951329,1671630147.538,531,103131,59571
223767,14918.37297581149,1671630147.538,531,103131,59571
223768,14918.38075367165,1671630147.538,530,103022,59600
223768,14918.388531531811,1671630147.538,530,103022,59600
223769,14918.396309391972,1671630147.538,529,103077,59570
223769,14918.404087252133,1671630147.538,529,103077,59570
223770,14918.413336978692,1671630147.628,531,103087,59574
223770,14918.420291546743,1671630147.628,531,103087,59574
223771,14918.427246114794,1671630147.628,532,103041,59600
223771,14918.434200682845,1671630147.628,532,103041,59600
223772,14918.441155250895,1671630147.628,532,103114,59572
223772,14918.448109818946,1671630147.628,532,103114,59572
223773,14918.455064386997,1671630147.628,531,103171,59584
223773,14918.462018955048,1671630147.628,531,103171,59584
223774,14918.468973523099,1671630147.628,531,103097,59566
223774,14918.47592809115,1671630147.628,531,103097,59566
223775,14918.4828826592,1671630147.628,530,103094,59577
223775,14918.489837227251,1671630147.628,530,103094,59577
223776,14918.496791795302,1671630147.725,530,103113,59564
223776,14918.503746363353,1671630147.725,530,103113,59564
223777,14918.510700931403,1671630147.725,530,103069,59563
223777,14918.517655499454,1671630147.725,530,103069,59563
223778,14918.524610067505,1671630147.725,530,103081,59575
223778,14918.531564635556,1671630147.725,530,103081,59575
223779,14918.538519203606,1671630147.725,532,103107,59568
223779,14918.545473771657,1671630147.725,532,103107,59568
223780,14918.569024810075,1671630147.725,531,103049,59574
223780,14918.576547114824,1671630147.725,531,103049,59574
223781,14918.584069419574,1671630147.725,530,103103,59583
223781,14918.591591724324,1671630147.725,530,103103,59583
223782,14918.599114029073,1671630147.824,531,103171,59583
223782,14918.606636333823,1671630147.824,531,103171,59583
223783,14918.614158638573,1671630147.824,528,103102,59584
223783,14918.621680943323,1671630147.824,528,103102,59584
223784,14918.629203248072,1671630147.824,530,103116,59568
223784,14918.636725552822,1671630147.824,530,103116,59568
223785,14918.644247857572,1671630147.824,531,103140,59595
223785,14918.651770162322,1671630147.824,531,103140,59595
223786,14918.659292467071,1671630147.824,531,103088,59605
223786,14918.666814771821,1671630147.824,531,103088,59605
223787,14918.67433707657,1671630147.824,530,103197,59617
223787,14918.68185938132,1671630147.824,530,103197,59617
223788,14918.68938168607,1671630147.914,529,103175,59626
223788,14918.69690399082,1671630147.914,529,103175,59626
223789,14918.70442629557,1671630147.914,530,103227,59607
223789,14918.71194860032,1671630147.914,530,103227,59607
223790,14918.729920848473,1671630147.914,531,103137,59581
223790,14918.737180033753,1671630147.914,531,103137,59581
223791,14918.744439219034,1671630147.914,530,103244,59631
223791,14918.751698404314,1671630147.914,530,103244,59631
223792,14918.758957589595,1671630147.914,529,103182,59634
223792,14918.766216774875,1671630147.914,529,103182,59634
223793,14918.773475960155,1671630147.914,529,103203,59617
223793,14918.780735145436,1671630147.914,529,103203,59617
223794,14918.787994330716,1671630148.014,529,103140,59614
223794,14918.795253515997,1671630148.014,529,103140,59614
223795,14918.802512701277,1671630148.014,532,103154,59638
223795,14918.809771886557,1671630148.014,532,103154,59638
223796,14918.817031071838,1671630148.014,531,103180,59634
223796,14918.824290257118,1671630148.014,531,103180,59634
223797,14918.831549442399,1671630148.014,532,103184,59618
223797,14918.83880862768,1671630148.014,532,103184,59618
223798,14918.84606781296,1671630148.014,531,103270,59660
223798,14918.85332699824,1671630148.014,531,103270,59660
223799,14918.86058618352,1671630148.014,530,103263,59665
223799,14918.8678453688,1671630148.014,530,103263,59665
223800,14918.890413633539,1671630148.095,530,103295,59658
223800,14918.89818937192,1671630148.095,530,103295,59658
223801,14918.9059651103,1671630148.095,531,103280,59666
223801,14918.91374084868,1671630148.095,531,103280,59666
223802,14918.921516587061,1671630148.095,531,103269,59641
223802,14918.929292325442,1671630148.095,531,103269,59641
223803,14918.937068063822,1671630148.095,533,103201,59665
223803,14918.944843802203,1671630148.095,533,103201,59665
223804,14918.952619540583,1671630148.095,531,103292,59672
223804,14918.960395278964,1671630148.095,531,103292,59672
223805,14918.968171017345,1671630148.095,533,103220,59682
223805,14918.975946755725,1671630148.095,533,103220,59682
223806,14918.983722494106,1671630148.198,530,103310,59679
223806,14918.991498232486,1671630148.198,530,103310,59679
223807,14918.999273970867,1671630148.198,530,103308,59694
223807,14919.007049709247,1671630148.198,530,103308,59694
223808,14919.014825447628,1671630148.198,531,103384,59695
223808,14919.022601186009,1671630148.198,531,103384,59695
223809,14919.03037692439,1671630148.198,529,103358,59711
223809,14919.03815266277,1671630148.198,529,103358,59711
223810,14919.040417067943,1671630148.198,532,103344,59712
223810,14919.048357077372,1671630148.198,532,103344,59712
223811,14919.056297086801,1671630148.198,532,103291,59680
223811,14919.06423709623,1671630148.198,532,103291,59680
223812,14919.07217710566,1671630148.296,531,103358,59712
223812,14919.080117115089,1671630148.296,531,103358,59712
223813,14919.088057124518,1671630148.296,530,103418,59740
223813,14919.095997133947,1671630148.296,530,103418,59740
223814,14919.103937143376,1671630148.296,532,103339,59710
223814,14919.111877152805,1671630148.296,532,103339,59710
223815,14919.119817162235,1671630148.296,530,103439,59729
223815,14919.127757171664,1671630148.296,530,103439,59729
223816,14919.135697181093,1671630148.296,531,103388,59735
223816,14919.143637190522,1671630148.296,531,103388,59735
223817,14919.151577199951,1671630148.296,532,103364,59725
223817,14919.15951720938,1671630148.296,532,103364,59725
223818,14919.16745721881,1671630148.378,532,103477,59749
223818,14919.175397228239,1671630148.378,532,103477,59749
223819,14919.183337237668,1671630148.378,533,103414,59743
223819,14919.191277247097,1671630148.378,533,103414,59743
223820,14919.198738460702,1671630148.378,531,103439,59753
223820,14919.205543522057,1671630148.378,531,103439,59753
223821,14919.212348583413,1671630148.378,532,103450,59721
223821,14919.219153644768,1671630148.378,532,103450,59721
223822,14919.225958706123,1671630148.378,530,103407,59737
223822,14919.232763767479,1671630148.378,530,103407,59737
223823,14919.239568828834,1671630148.378,530,103328,59711
223823,14919.24637389019,1671630148.378,530,103328,59711
223824,14919.253178951545,1671630148.485,530,103338,59725
223824,14919.2599840129,1671630148.485,530,103338,59725
223825,14919.266789074256,1671630148.485,529,103342,59714
223825,14919.273594135611,1671630148.485,529,103342,59714
223826,14919.280399196967,1671630148.485,530,103321,59691
223826,14919.287204258322,1671630148.485,530,103321,59691
223827,14919.294009319678,1671630148.485,532,103331,59708
223827,14919.300814381033,1671630148.485,532,103331,59708
223828,14919.307619442388,1671630148.485,532,103297,59698
223828,14919.314424503744,1671630148.485,532,103297,59698
223829,14919.3212295651,1671630148.485,532,103276,59688
223829,14919.328034626455,1671630148.485,532,103276,59688
223830,14919.362276889815,1671630148.577,530,103304,59722
223830,14919.370593164422,1671630148.577,530,103304,59722
223831,14919.378909439029,1671630148.577,529,103353,59720
223831,14919.387225713635,1671630148.577,529,103353,59720
223832,14919.395541988242,1671630148.577,528,103339,59711
223832,14919.40385826285,1671630148.577,528,103339,59711
223833,14919.412174537456,1671630148.577,530,103285,59712
223833,14919.420490812063,1671630148.577,530,103285,59712
223834,14919.42880708667,1671630148.577,530,103216,59701
223834,14919.437123361276,1671630148.577,530,103216,59701
223835,14919.445439635883,1671630148.577,532,103273,59730
223835,14919.45375591049,1671630148.577,532,103273,59730
223836,14919.462072185097,1671630148.663,532,103261,59707
223836,14919.470388459704,1671630148.663,532,103261,59707
223837,14919.47870473431,1671630148.663,531,103195,59705
223837,14919.487021008918,1671630148.663,531,103195,59705
223838,14919.495337283524,1671630148.663,529,103338,59754
223838,14919.503653558131,1671630148.663,529,103338,59754
223839,14919.511969832738,1671630148.663,528,103204,59695
223839,14919.520286107345,1671630148.663,528,103204,59695
223840,14919.509390722535,1671630148.663,531,103250,59702
223840,14919.516132103729,1671630148.663,531,103250,59702
223841,14919.522873484922,1671630148.663,530,103254,59699
223841,14919.529614866116,1671630148.663,530,103254,59699
223842,14919.53635624731,1671630148.755,530,103218,59697
223842,14919.543097628504,1671630148.755,530,103218,59697
223843,14919.549839009698,1671630148.755,531,103189,59689
223843,14919.556580390892,1671630148.755,531,103189,59689
223844,14919.563321772086,1671630148.755,530,103308,59695
223844,14919.57006315328,1671630148.755,530,103308,59695
223845,14919.576804534474,1671630148.755,531,103171,59693
223845,14919.583545915668,1671630148.755,531,103171,59693
223846,14919.590287296862,1671630148.755,530,103231,59686
223846,14919.597028678056,1671630148.755,530,103231,59686
223847,14919.60377005925,1671630148.755,529,103229,59701
223847,14919.610511440444,1671630148.755,529,103229,59701
223848,14919.617252821638,1671630148.845,530,103220,59703
223848,14919.623994202831,1671630148.845,530,103220,59703
223849,14919.630735584025,1671630148.845,528,103146,59700
223849,14919.63747696522,1671630148.845,528,103146,59700
223850,14919.660535173134,1671630148.845,529,103152,59679
223850,14919.667584730681,1671630148.845,529,103152,59679
223851,14919.674634288229,1671630148.845,529,103247,59709
223851,14919.681683845776,1671630148.845,529,103247,59709
223852,14919.688733403324,1671630148.845,531,103262,59709
223852,14919.695782960871,1671630148.845,531,103262,59709
223853,14919.702832518418,1671630148.845,530,103270,59719
223853,14919.709882075966,1671630148.845,530,103270,59719
223854,14919.716931633513,1671630148.949,530,103259,59717
223854,14919.72398119106,1671630148.949,530,103259,59717
223855,14919.731030748608,1671630148.949,530,103256,59703
223855,14919.738080306155,1671630148.949,530,103256,59703
223856,14919.745129863702,1671630148.949,529,103320,59732
223856,14919.75217942125,1671630148.949,529,103320,59732
223857,14919.759228978797,1671630148.949,528,103227,59728
223857,14919.766278536345,1671630148.949,528,103227,59728
223858,14919.773328093892,1671630148.949,531,103300,59708
223858,14919.78037765144,1671630148.949,531,103300,59708
223859,14919.787427208987,1671630148.949,529,103188,59711
223859,14919.794476766534,1671630148.949,529,103188,59711
223860,14919.825790692576,1671630149.038,530,103270,59719
223860,14919.83392720773,1671630149.038,530,103270,59719
223861,14919.842063722885,1671630149.038,531,103336,59721
223861,14919.85020023804,1671630149.038,531,103336,59721
223862,14919.858336753194,1671630149.038,530,103211,59716
223862,14919.866473268348,1671630149.038,530,103211,59716
223863,14919.874609783503,1671630149.038,530,103289,59736
223863,14919.882746298657,1671630149.038,530,103289,59736
223864,14919.890882813812,1671630149.038,529,103333,59723
223864,14919.899019328966,1671630149.038,529,103333,59723
223865,14919.907155844121,1671630149.038,528,103341,59735
223865,14919.915292359276,1671630149.038,528,103341,59735
223866,14919.92342887443,1671630149.135,531,103340,59745
223866,14919.931565389585,1671630149.135,531,103340,59745
223867,14919.93970190474,1671630149.135,530,103287,59739
223867,14919.947838419894,1671630149.135,530,103287,59739
223868,14919.955974935048,1671630149.135,531,103343,59746
223868,14919.964111450203,1671630149.135,531,103343,59746
223869,14919.972247965357,1671630149.135,533,103296,59730
223869,14919.980384480512,1671630149.135,533,103296,59730
223870,14919.978654499955,1671630149.135,531,103264,59760
223870,14919.986205653251,1671630149.135,531,103264,59760
223871,14919.993756806547,1671630149.135,531,103352,59763
223871,14920.001307959843,1671630149.135,531,103352,59763
223872,14920.008859113139,1671630149.219,529,103369,59757
223872,14920.016410266435,1671630149.219,529,103369,59757
223873,14920.02396141973,1671630149.219,530,103411,59772
223873,14920.031512573027,1671630149.219,530,103411,59772
223874,14920.039063726323,1671630149.219,530,103468,59778
223874,14920.046614879619,1671630149.219,530,103468,59778
223875,14920.054166032915,1671630149.219,531,103457,59746
223875,14920.06171718621,1671630149.219,531,103457,59746
223876,14920.069268339506,1671630149.219,531,103465,59767
223876,14920.076819492802,1671630149.219,531,103465,59767
223877,14920.084370646098,1671630149.219,531,103429,59794
223877,14920.091921799394,1671630149.219,531,103429,59794
223878,14920.09947295269,1671630149.323,531,103414,59792
223878,14920.107024105986,1671630149.323,531,103414,59792
223879,14920.114575259282,1671630149.323,530,103439,59775
223879,14920.122126412578,1671630149.323,530,103439,59775
223880,14920.129919399833,1671630149.323,530,103440,59772
223880,14920.137587420624,1671630149.323,530,103440,59772
223881,14920.145255441415,1671630149.323,531,103495,59806
223881,14920.152923462207,1671630149.323,531,103495,59806
223882,14920.160591482998,1671630149.323,529,103543,59818
223882,14920.16825950379,1671630149.323,529,103543,59818
223883,14920.17592752458,1671630149.323,532,103476,59795
223883,14920.183595545372,1671630149.323,532,103476,59795
223884,14920.191263566163,1671630149.413,531,103505,59804
223884,14920.198931586954,1671630149.413,531,103505,59804
223885,14920.206599607745,1671630149.413,531,103494,59809
223885,14920.214267628537,1671630149.413,531,103494,59809
223886,14920.221935649328,1671630149.413,531,103587,59824
223886,14920.22960367012,1671630149.413,531,103587,59824
223887,14920.23727169091,1671630149.413,530,103502,59824
223887,14920.244939711702,1671630149.413,530,103502,59824
223888,14920.252607732493,1671630149.413,529,103596,59832
223888,14920.260275753284,1671630149.413,529,103596,59832
223889,14920.267943774075,1671630149.413,530,103459,59821
223889,14920.275611794867,1671630149.413,530,103459,59821
223890,14920.288467062204,1671630149.505,531,103598,59806
223890,14920.295494277094,1671630149.505,531,103598,59806
223891,14920.302521491983,1671630149.505,533,103548,59852
223891,14920.309548706873,1671630149.505,533,103548,59852
223892,14920.316575921763,1671630149.505,531,103604,59825
223892,14920.323603136652,1671630149.505,531,103604,59825
223893,14920.330630351542,1671630149.505,531,103582,59824
223893,14920.337657566432,1671630149.505,531,103582,59824
223894,14920.344684781321,1671630149.505,532,103534,59810
223894,14920.35171199621,1671630149.505,532,103534,59810
223895,14920.3587392111,1671630149.505,530,103545,59799
223895,14920.36576642599,1671630149.505,530,103545,59799
223896,14920.37279364088,1671630149.599,528,103538,59793
223896,14920.37982085577,1671630149.599,528,103538,59793
223897,14920.386848070659,1671630149.599,530,103490,59789
223897,14920.393875285548,1671630149.599,530,103490,59789
223898,14920.400902500438,1671630149.599,532,103506,59803
223898,14920.407929715328,1671630149.599,532,103506,59803
223899,14920.414956930217,1671630149.599,531,103500,59806
223899,14920.421984145107,1671630149.599,531,103500,59806
223900,14920.443599989374,1671630149.599,529,103529,59800
223900,14920.450929332084,1671630149.599,529,103529,59800
223901,14920.458258674795,1671630149.599,531,103474,59808
223901,14920.465588017505,1671630149.599,531,103474,59808
223902,14920.472917360215,1671630149.698,530,103419,59797
223902,14920.480246702926,1671630149.698,530,103419,59797
223903,14920.487576045636,1671630149.698,530,103498,59823
223903,14920.494905388347,1671630149.698,530,103498,59823
223904,14920.502234731057,1671630149.698,529,103459,59803
223904,14920.509564073767,1671630149.698,529,103459,59803
223905,14920.516893416478,1671630149.698,531,103425,59802
223905,14920.524222759188,1671630149.698,531,103425,59802
223906,14920.531552101898,1671630149.698,529,103501,59812
223906,14920.538881444609,1671630149.698,529,103501,59812
223907,14920.546210787319,1671630149.698,533,103320,59789
223907,14920.55354013003,1671630149.698,533,103320,59789
223908,14920.56086947274,1671630149.789,532,103447,59803
223908,14920.56819881545,1671630149.789,532,103447,59803
223909,14920.57552815816,1671630149.789,531,103494,59810
223909,14920.58285750087,1671630149.789,531,103494,59810
223910,14920.604333509707,1671630149.789,530,103375,59804
223910,14920.611589695,1671630149.789,530,103375,59804
223911,14920.618845880292,1671630149.789,530,103416,59808
223911,14920.626102065584,1671630149.789,530,103416,59808
223912,14920.633358250876,1671630149.789,529,103484,59800
223912,14920.640614436168,1671630149.789,529,103484,59800
223913,14920.64787062146,1671630149.789,530,103493,59826
223913,14920.655126806752,1671630149.789,530,103493,59826
223914,14920.662382992045,1671630149.893,531,103457,59803
223914,14920.669639177337,1671630149.893,531,103457,59803
223915,14920.676895362629,1671630149.893,532,103486,59789
223915,14920.684151547921,1671630149.893,532,103486,59789
223916,14920.691407733213,1671630149.893,530,103475,59780
223916,14920.698663918505,1671630149.893,530,103475,59780
223917,14920.705920103797,1671630149.893,529,103420,59805
223917,14920.71317628909,1671630149.893,529,103420,59805
223918,14920.720432474382,1671630149.893,529,103497,59828
223918,14920.727688659674,1671630149.893,529,103497,59828
223919,14920.734944844966,1671630149.893,530,103496,59803
223919,14920.742201030258,1671630149.893,530,103496,59803
223920,14920.770186850272,1671630149.968,529,103429,59804
223920,14920.778353910071,1671630149.968,529,103429,59804
223921,14920.78652096987,1671630149.968,530,103454,59802
223921,14920.79468802967,1671630149.968,530,103454,59802
223922,14920.802855089469,1671630149.968,531,103477,59803
223922,14920.811022149268,1671630149.968,531,103477,59803
223923,14920.819189209067,1671630149.968,531,103478,59797
223923,14920.827356268866,1671630149.968,531,103478,59797
223924,14920.835523328666,1671630149.968,532,103485,59804
223924,14920.843690388465,1671630149.968,532,103485,59804
223925,14920.851857448264,1671630149.968,532,103442,59800
223925,14920.860024508063,1671630149.968,532,103442,59800
223926,14920.868191567863,1671630150.073,531,103448,59795
223926,14920.876358627662,1671630150.073,531,103448,59795
223927,14920.884525687461,1671630150.073,529,103493,59807
223927,14920.89269274726,1671630150.073,529,103493,59807
223928,14920.90085980706,1671630150.073,531,103378,59801
223928,14920.909026866859,1671630150.073,531,103378,59801
223929,14920.917193926658,1671630150.073,531,103486,59802
223929,14920.925360986457,1671630150.073,531,103486,59802
223930,14920.915129384219,1671630150.073,531,103453,59778
223930,14920.923199760942,1671630150.073,531,103453,59778
223931,14920.931270137666,1671630150.073,532,103494,59794
223931,14920.93934051439,1671630150.073,532,103494,59794
223932,14920.947410891113,1671630150.167,531,103481,59802
223932,14920.955481267836,1671630150.167,531,103481,59802
223933,14920.96355164456,1671630150.167,532,103459,59798
223933,14920.971622021283,1671630150.167,532,103459,59798
223934,14920.979692398007,1671630150.167,531,103565,59824
223934,14920.98776277473,1671630150.167,531,103565,59824
223935,14920.995833151454,1671630150.167,530,103593,59837
223935,14921.003903528177,1671630150.167,530,103593,59837
223936,14921.0119739049,1671630150.167,530,103567,59828
223936,14921.020044281624,1671630150.167,530,103567,59828
223937,14921.028114658347,1671630150.167,531,103481,59792
223937,14921.036185035071,1671630150.167,531,103481,59792
223938,14921.044255411794,1671630150.253,532,103566,59822
223938,14921.052325788518,1671630150.253,532,103566,59822
223939,14921.060396165241,1671630150.253,533,103521,59814
223939,14921.068466541965,1671630150.253,533,103521,59814
223940,14921.071008527824,1671630150.253,533,103617,59832
223940,14921.077907145856,1671630150.253,533,103617,59832
223941,14921.084805763889,1671630150.253,532,103551,59819
223941,14921.09170438192,1671630150.253,532,103551,59819
223942,14921.098602999953,1671630150.253,531,103606,59825
223942,14921.105501617985,1671630150.253,531,103606,59825
223943,14921.112400236017,1671630150.253,531,103646,59805
223943,14921.11929885405,1671630150.253,531,103646,59805
223944,14921.126197472082,1671630150.361,530,103610,59834
223944,14921.133096090114,1671630150.361,530,103610,59834
223945,14921.139994708146,1671630150.361,531,103646,59820
223945,14921.146893326179,1671630150.361,531,103646,59820
223946,14921.15379194421,1671630150.361,531,103674,59853
