id,lsl_ts,unix_ts,ambient,ir,red
0,89551.53077268334,1671367871.244,22240,2196,561
0,89551.53077268334,1671367871.244,22240,2196,561
1,89551.53400976668,1671367871.244,22535,2168,578
1,89551.53400976668,1671367871.244,22535,2168,578
2,89551.53724685,1671367871.244,22710,2162,527
2,89551.53724685,1671367871.244,22710,2162,527
3,89551.54048393334,1671367871.244,23106,2230,568
3,89551.54048393334,1671367871.244,23106,2230,568
4,89551.54372101667,1671367871.244,22763,2177,568
4,89551.54372101667,1671367871.244,22763,2177,568
5,89551.5469581,1671367871.244,22812,2282,623
5,89551.5469581,1671367871.244,22812,2282,623
6,89551.55611295,1671367871.299,22262,2217,586
6,89551.55611295,1671367871.299,22262,2217,586
7,89551.5652678,1671367871.299,22059,2201,576
7,89551.5652678,1671367871.299,22059,2201,576
8,89551.57442265001,1671367871.299,21835,2162,532
8,89551.57442265001,1671367871.299,21835,2162,532
9,89551.5835775,1671367871.299,22058,2175,602
9,89551.5835775,1671367871.299,22058,2175,602
10,89551.59273235,1671367871.299,22160,2168,543
10,89551.59273235,1671367871.299,22160,2168,543
11,89551.6018872,1671367871.299,22608,2218,610
11,89551.6018872,1671367871.299,22608,2218,610
12,89551.61373478333,1671367871.37,22302,2212,556
12,89551.61373478333,1671367871.37,22302,2212,556
13,89551.62558236667,1671367871.37,22368,2260,609
13,89551.62558236667,1671367871.37,22368,2260,609
14,89551.63742995,1671367871.37,21836,2190,587
14,89551.63742995,1671367871.37,21836,2190,587
15,89551.64927753333,1671367871.37,21704,2259,577
15,89551.64927753333,1671367871.37,21704,2259,577
16,89551.66112511668,1671367871.37,21513,2212,536
16,89551.66112511668,1671367871.37,21513,2212,536
17,89551.6729727,1671367871.37,21814,2211,544
17,89551.6729727,1671367871.37,21814,2211,544
18,89551.69286556667,1671367871.49,21994,2175,518
18,89551.69286556667,1671367871.49,21994,2175,518
19,89551.71275843334,1671367871.49,22370,2210,593
19,89551.71275843334,1671367871.49,22370,2210,593
20,89551.7326513,1671367871.49,22089,2207,580
20,89551.7326513,1671367871.49,22089,2207,580
21,89551.75254416667,1671367871.49,22232,2237,637
21,89551.75254416667,1671367871.49,22232,2237,637
22,89551.77243703333,1671367871.49,21726,2280,585
22,89551.77243703333,1671367871.49,21726,2280,585
23,89551.7923299,1671367871.49,21719,2227,585
23,89551.7923299,1671367871.49,21719,2227,585
24,89551.80350843332,1671367871.557,21609,2225,569
24,89551.80350843332,1671367871.557,21609,2225,569
25,89551.81468696667,1671367871.557,22015,2249,577
25,89551.81468696667,1671367871.557,22015,2249,577
26,89551.8258655,1671367871.557,22321,2133,526
26,89551.8258655,1671367871.557,22321,2133,526
27,89551.83704403332,1671367871.557,22826,2207,533
27,89551.83704403332,1671367871.557,22826,2207,533
28,89551.84822256667,1671367871.557,22650,2203,557
28,89551.84822256667,1671367871.557,22650,2203,557
29,89551.8594011,1671367871.557,22750,2274,591
29,89551.8594011,1671367871.557,22750,2274,591
30,89551.87486006666,1671367871.649,22353,2200,589
30,89551.87486006666,1671367871.649,22353,2200,589
31,89551.89031903334,1671367871.649,22200,2203,571
31,89551.89031903334,1671367871.649,22200,2203,571
32,89551.905778,1671367871.649,22070,2189,553
32,89551.905778,1671367871.649,22070,2189,553
33,89551.92123696666,1671367871.649,22398,2197,523
33,89551.92123696666,1671367871.649,22398,2197,523
34,89551.93669593334,1671367871.649,22595,2163,531
34,89551.93669593334,1671367871.649,22595,2163,531
35,89551.9521549,1671367871.649,23051,2204,583
35,89551.9521549,1671367871.649,23051,2204,583
36,89551.9673879,1671367871.741,22817,2200,604
36,89551.9673879,1671367871.741,22817,2200,604
37,89551.9826209,1671367871.741,22817,2277,594
37,89551.9826209,1671367871.741,22817,2277,594
38,89551.9978539,1671367871.741,22321,2224,576
38,89551.9978539,1671367871.741,22321,2224,576
39,89552.0130869,1671367871.741,22197,2239,604
39,89552.0130869,1671367871.741,22197,2239,604
40,89552.0283199,1671367871.741,21921,2196,533
40,89552.0283199,1671367871.741,21921,2196,533
41,89552.0435529,1671367871.741,22245,2192,536
41,89552.0435529,1671367871.741,22245,2192,536
42,89552.05828441666,1671367871.829,22398,2177,551
42,89552.05828441666,1671367871.829,22398,2177,551
43,89552.07301593333,1671367871.829,22839,2187,586
43,89552.07301593333,1671367871.829,22839,2187,586
44,89552.08774745,1671367871.829,22619,2203,581
44,89552.08774745,1671367871.829,22619,2203,581
45,89552.10247896667,1671367871.829,22647,2279,591
45,89552.10247896667,1671367871.829,22647,2279,591
46,89552.11721048334,1671367871.829,22133,2202,561
46,89552.11721048334,1671367871.829,22133,2202,561
47,89552.131942,1671367871.829,21966,2277,561
47,89552.131942,1671367871.829,21966,2277,561
48,89552.14828533334,1671367871.927,21811,2217,526
48,89552.14828533334,1671367871.927,21811,2217,526
49,89552.16462866667,1671367871.927,22043,2231,522
49,89552.16462866667,1671367871.927,22043,2231,522
50,89552.180972,1671367871.927,22312,2149,517
50,89552.180972,1671367871.927,22312,2149,517
51,89552.19731533334,1671367871.927,22779,2198,552
51,89552.19731533334,1671367871.927,22779,2198,552
52,89552.21365866666,1671367871.927,22635,2202,520
52,89552.21365866666,1671367871.927,22635,2202,520
53,89552.230002,1671367871.927,22771,2266,645
53,89552.230002,1671367871.927,22771,2266,645
54,89552.24857923333,1671367872.039,22456,2233,595
54,89552.24857923333,1671367872.039,22456,2233,595
55,89552.26715646667,1671367872.039,22427,2239,601
55,89552.26715646667,1671367872.039,22427,2239,601
56,89552.2857337,1671367872.039,22327,2180,538
56,89552.2857337,1671367872.039,22327,2180,538
57,89552.30431093332,1671367872.039,22692,2171,595
57,89552.30431093332,1671367872.039,22692,2171,595
58,89552.32288816666,1671367872.039,22785,2139,534
58,89552.32288816666,1671367872.039,22785,2139,534
59,89552.3414654,1671367872.039,23230,2199,599
59,89552.3414654,1671367872.039,23230,2199,599
60,89552.35445296665,1671367872.117,23037,2179,616
60,89552.35445296665,1671367872.117,23037,2179,616
61,89552.36744053333,1671367872.117,23113,2240,599
61,89552.36744053333,1671367872.117,23113,2240,599
62,89552.3804281,1671367872.117,22769,2212,569
62,89552.3804281,1671367872.117,22769,2212,569
63,89552.39341566667,1671367872.117,22735,2209,574
63,89552.39341566667,1671367872.117,22735,2209,574
64,89552.40640323333,1671367872.117,22560,2231,539
64,89552.40640323333,1671367872.117,22560,2231,539
65,89552.4193908,1671367872.117,22965,2160,541
65,89552.4193908,1671367872.117,22965,2160,541
66,89552.4326627,1671367872.196,23154,2155,499
66,89552.4326627,1671367872.196,23154,2155,499
67,89552.44593460001,1671367872.196,23622,2189,550
67,89552.44593460001,1671367872.196,23622,2189,550
68,89552.4592065,1671367872.196,23519,2134,570
68,89552.4592065,1671367872.196,23519,2134,570
69,89552.4724784,1671367872.196,23579,2204,587
69,89552.4724784,1671367872.196,23579,2204,587
70,89552.48575030001,1671367872.196,23207,2200,555
70,89552.48575030001,1671367872.196,23207,2200,555
71,89552.4990222,1671367872.196,23181,2166,609
71,89552.4990222,1671367872.196,23181,2166,609
72,89552.52396731667,1671367872.346,23094,2138,531
72,89552.52396731667,1671367872.346,23094,2138,531
73,89552.54891243334,1671367872.346,23475,2156,525
73,89552.54891243334,1671367872.346,23475,2156,525
74,89552.57385755,1671367872.346,23753,2137,523
74,89552.57385755,1671367872.346,23753,2137,523
75,89552.59880266666,1671367872.346,24337,2172,511
75,89552.59880266666,1671367872.346,24337,2172,511
76,89552.62374778333,1671367872.346,24280,2106,559
76,89552.62374778333,1671367872.346,24280,2106,559
77,89552.6486929,1671367872.346,24488,2154,585
77,89552.6486929,1671367872.346,24488,2154,585
78,89552.65756883333,1671367872.399,24295,2154,589
78,89552.65756883333,1671367872.399,24295,2154,589
79,89552.66644476667,1671367872.399,24322,2188,576
79,89552.66644476667,1671367872.399,24322,2188,576
80,89552.6753207,1671367872.399,24496,2077,548
80,89552.6753207,1671367872.399,24496,2077,548
81,89552.68419663333,1671367872.399,25115,2082,504
81,89552.68419663333,1671367872.399,25115,2082,504
82,89552.69307256668,1671367872.399,25678,2032,493
82,89552.69307256668,1671367872.399,25678,2032,493
83,89552.7019485,1671367872.399,26583,2057,505
83,89552.7019485,1671367872.399,26583,2057,505
84,89552.71752375,1671367872.493,26844,2043,599
84,89552.71752375,1671367872.493,26844,2043,599
85,89552.733099,1671367872.493,27205,2112,521
85,89552.733099,1671367872.493,27205,2112,521
86,89552.74867425,1671367872.493,27352,2099,580
86,89552.74867425,1671367872.493,27352,2099,580
87,89552.7642495,1671367872.493,27651,2026,569
87,89552.7642495,1671367872.493,27651,2026,569
88,89552.77982475,1671367872.493,28188,1979,535
88,89552.77982475,1671367872.493,28188,1979,535
89,89552.7954,1671367872.493,29452,1920,503
89,89552.7954,1671367872.493,29452,1920,503
90,89552.8103419,1671367872.582,30572,1852,492
90,89552.8103419,1671367872.582,30572,1852,492
91,89552.8252838,1671367872.582,32084,1956,450
91,89552.8252838,1671367872.582,32084,1956,450
92,89552.8402257,1671367872.582,32847,1887,509
92,89552.8402257,1671367872.582,32847,1887,509
93,89552.85516759999,1671367872.582,33488,1959,496
93,89552.85516759999,1671367872.582,33488,1959,496
94,89552.8701095,1671367872.582,33937,1922,508
94,89552.8701095,1671367872.582,33937,1922,508
95,89552.8850514,1671367872.582,34817,1846,536
95,89552.8850514,1671367872.582,34817,1846,536
96,89552.90042893332,1671367872.675,35797,1848,446
96,89552.90042893332,1671367872.675,35797,1848,446
97,89552.91580646666,1671367872.675,37397,1797,522
97,89552.91580646666,1671367872.675,37397,1797,522
98,89552.93118399999,1671367872.675,38782,1708,473
98,89552.93118399999,1671367872.675,38782,1708,473
99,89552.94656153333,1671367872.675,40573,1753,527
99,89552.94656153333,1671367872.675,40573,1753,527
100,89552.96193906666,1671367872.675,41357,1735,560
100,89552.96193906666,1671367872.675,41357,1735,560
101,89552.9773166,1671367872.675,41786,1838,573
101,89552.9773166,1671367872.675,41786,1838,573
102,89552.994981,1671367872.781,41663,1818,594
102,89552.994981,1671367872.781,41663,1818,594
103,89553.0126454,1671367872.781,41367,1803,616
103,89553.0126454,1671367872.781,41367,1803,616
104,89553.0303098,1671367872.781,41334,1750,559
104,89553.0303098,1671367872.781,41334,1750,559
105,89553.0479742,1671367872.781,41807,1829,555
105,89553.0479742,1671367872.781,41807,1829,555
106,89553.0656386,1671367872.781,42261,1708,560
106,89553.0656386,1671367872.781,42261,1708,560
107,89553.083303,1671367872.781,43199,1788,540
107,89553.083303,1671367872.781,43199,1788,540
108,89553.09822330001,1671367872.87,43398,1728,613
108,89553.09822330001,1671367872.87,43398,1728,613
109,89553.1131436,1671367872.87,43236,1772,578
109,89553.1131436,1671367872.87,43236,1772,578
110,89553.1280639,1671367872.87,42985,1807,628
110,89553.1280639,1671367872.87,42985,1807,628
111,89553.1429842,1671367872.87,42713,1821,563
111,89553.1429842,1671367872.87,42713,1821,563
112,89553.1579045,1671367872.87,42768,1663,539
112,89553.1579045,1671367872.87,42768,1663,539
113,89553.1728248,1671367872.87,43518,1751,543
113,89553.1728248,1671367872.87,43518,1751,543
114,89553.18716108333,1671367872.956,44351,1697,442
114,89553.18716108333,1671367872.956,44351,1697,442
115,89553.20149736667,1671367872.956,45572,1756,509
115,89553.20149736667,1671367872.956,45572,1756,509
116,89553.21583365,1671367872.956,46111,1710,579
116,89553.21583365,1671367872.956,46111,1710,579
117,89553.23016993333,1671367872.956,45964,1743,536
117,89553.23016993333,1671367872.956,45964,1743,536
118,89553.24450621667,1671367872.956,45787,1717,597
118,89553.24450621667,1671367872.956,45787,1717,597
119,89553.2588425,1671367872.956,45175,1748,532
119,89553.2588425,1671367872.956,45175,1748,532
120,89553.27488616666,1671367873.052,44963,1691,497
120,89553.27488616666,1671367873.052,44963,1691,497
121,89553.29092983334,1671367873.052,45238,1721,524
121,89553.29092983334,1671367873.052,45238,1721,524
122,89553.3069735,1671367873.052,45833,1647,430
122,89553.3069735,1671367873.052,45833,1647,430
123,89553.32301716667,1671367873.052,46529,1725,510
123,89553.32301716667,1671367873.052,46529,1725,510
124,89553.33906083334,1671367873.052,46626,1706,546
124,89553.33906083334,1671367873.052,46626,1706,546
125,89553.3551045,1671367873.052,46045,1811,496
125,89553.3551045,1671367873.052,46045,1811,496
126,89553.37002328334,1671367873.142,45401,1727,551
126,89553.37002328334,1671367873.142,45401,1727,551
127,89553.38494206667,1671367873.142,43886,1773,484
127,89553.38494206667,1671367873.142,43886,1773,484
128,89553.39986085001,1671367873.142,42034,1753,484
128,89553.39986085001,1671367873.142,42034,1753,484
129,89553.41477963334,1671367873.142,41771,1689,499
129,89553.41477963334,1671367873.142,41771,1689,499
130,89553.42969841667,1671367873.142,41920,1691,493
130,89553.42969841667,1671367873.142,41920,1691,493
131,89553.4446172,1671367873.142,41921,1743,475
131,89553.4446172,1671367873.142,41921,1743,475
132,89553.46231863333,1671367873.248,41236,1807,546
132,89553.46231863333,1671367873.248,41236,1807,546
133,89553.48002006667,1671367873.248,39766,1868,512
133,89553.48002006667,1671367873.248,39766,1868,512
134,89553.4977215,1671367873.248,36785,1920,609
134,89553.4977215,1671367873.248,36785,1920,609
135,89553.51542293334,1671367873.248,33809,1986,562
135,89553.51542293334,1671367873.248,33809,1986,562
136,89553.53312436667,1671367873.248,30926,2046,669
136,89553.53312436667,1671367873.248,30926,2046,669
137,89553.5508258,1671367873.248,28389,2171,706
137,89553.5508258,1671367873.248,28389,2171,706
138,89553.56553538334,1671367873.336,25114,2333,785
138,89553.56553538334,1671367873.336,25114,2333,785
139,89553.58024496667,1671367873.336,21438,2594,917
139,89553.58024496667,1671367873.336,21438,2594,917
140,89553.59495455,1671367873.336,17415,2897,1111
140,89553.59495455,1671367873.336,17415,2897,1111
141,89553.60966413334,1671367873.336,13510,3311,1253
141,89553.60966413334,1671367873.336,13510,3311,1253
142,89553.62437371667,1671367873.336,10771,3682,1497
142,89553.62437371667,1671367873.336,10771,3682,1497
143,89553.6390833,1671367873.336,9416,3964,1615
143,89553.6390833,1671367873.336,9416,3964,1615
144,89553.65443168333,1671367873.428,8589,4137,1730
144,89553.65443168333,1671367873.428,8589,4137,1730
145,89553.66978006667,1671367873.428,7922,4310,1752
145,89553.66978006667,1671367873.428,7922,4310,1752
146,89553.68512845,1671367873.428,7579,4374,1824
146,89553.68512845,1671367873.428,7579,4374,1824
147,89553.70047683333,1671367873.428,7390,4451,1842
147,89553.70047683333,1671367873.428,7390,4451,1842
148,89553.71582521667,1671367873.428,7277,4514,1875
148,89553.71582521667,1671367873.428,7277,4514,1875
149,89553.7311736,1671367873.428,7175,4500,1876
149,89553.7311736,1671367873.428,7175,4500,1876
150,89553.75434038333,1671367873.567,7316,4471,1843
150,89553.75434038333,1671367873.567,7316,4471,1843
151,89553.77750716667,1671367873.567,7505,4413,1788
151,89553.77750716667,1671367873.567,7505,4413,1788
152,89553.80067395,1671367873.567,7760,4359,1757
152,89553.80067395,1671367873.567,7760,4359,1757
153,89553.82384073333,1671367873.567,8049,4290,1752
153,89553.82384073333,1671367873.567,8049,4290,1752
154,89553.84700751667,1671367873.567,8477,4266,1716
154,89553.84700751667,1671367873.567,8477,4266,1716
155,89553.8701743,1671367873.567,9140,4172,1652
155,89553.8701743,1671367873.567,9140,4172,1652
156,89553.88093515,1671367873.632,9962,4109,1671
156,89553.88093515,1671367873.632,9962,4109,1671
157,89553.891696,1671367873.632,10520,3994,1581
157,89553.891696,1671367873.632,10520,3994,1581
158,89553.90245685,1671367873.632,11038,3987,1572
158,89553.90245685,1671367873.632,11038,3987,1572
159,89553.9132177,1671367873.632,11103,4022,1562
159,89553.9132177,1671367873.632,11103,4022,1562
160,89553.92397855001,1671367873.632,11054,4050,1607
160,89553.92397855001,1671367873.632,11054,4050,1607
161,89553.9347394,1671367873.632,10776,4207,1656
161,89553.9347394,1671367873.632,10776,4207,1656
162,89553.94576345,1671367873.698,10390,4460,1885
162,89553.94576345,1671367873.698,10390,4460,1885
163,89553.9567875,1671367873.698,9892,4771,2087
163,89553.9567875,1671367873.698,9892,4771,2087
164,89553.96781155001,1671367873.698,9339,5212,2445
164,89553.96781155001,1671367873.698,9339,5212,2445
165,89553.9788356,1671367873.698,8263,5723,2810
165,89553.9788356,1671367873.698,8263,5723,2810
166,89553.98985965,1671367873.698,7247,6360,3301
166,89553.98985965,1671367873.698,7247,6360,3301
167,89554.0008837,1671367873.698,6017,7025,3833
167,89554.0008837,1671367873.698,6017,7025,3833
168,89554.01815353334,1671367873.802,4996,7898,4477
168,89554.01815353334,1671367873.802,4996,7898,4477
169,89554.03542336667,1671367873.802,3933,9039,5354
169,89554.03542336667,1671367873.802,3933,9039,5354
170,89554.0526932,1671367873.802,3065,10626,6598
170,89554.0526932,1671367873.802,3065,10626,6598
171,89554.06996303333,1671367873.802,2118,12993,8459
171,89554.06996303333,1671367873.802,2118,12993,8459
172,89554.08723286666,1671367873.802,1568,16767,11553
172,89554.08723286666,1671367873.802,1568,16767,11553
173,89554.1045027,1671367873.802,1352,22654,16313
173,89554.1045027,1671367873.802,1352,22654,16313
174,89554.121279,1671367873.902,1268,30580,22665
174,89554.121279,1671367873.902,1268,30580,22665
175,89554.13805529999,1671367873.902,1210,40219,30246
175,89554.13805529999,1671367873.902,1210,40219,30246
176,89554.1548316,1671367873.902,1149,52069,38879
176,89554.1548316,1671367873.902,1149,52069,38879
177,89554.1716079,1671367873.902,1113,64412,47378
177,89554.1716079,1671367873.902,1113,64412,47378
178,89554.1883842,1671367873.902,1055,76621,54952
178,89554.1883842,1671367873.902,1055,76621,54952
179,89554.2051605,1671367873.902,1019,90860,63162
179,89554.2051605,1671367873.902,1019,90860,63162
180,89554.22032835,1671367873.993,929,113222,75545
180,89554.22032835,1671367873.993,929,113222,75545
181,89554.2354962,1671367873.993,834,147843,92358
181,89554.2354962,1671367873.993,834,147843,92358
182,89554.25066404999,1671367873.993,713,193812,112520
182,89554.25066404999,1671367873.993,713,193812,112520
183,89554.2658319,1671367873.993,622,220346,125454
183,89554.2658319,1671367873.993,622,220346,125454
184,89554.28099975,1671367873.993,562,210550,123661
184,89554.28099975,1671367873.993,562,210550,123661
185,89554.2961676,1671367873.993,525,194270,110704
185,89554.2961676,1671367873.993,525,194270,110704
186,89554.31088941667,1671367874.082,507,194164,99506
186,89554.31088941667,1671367874.082,507,194164,99506
187,89554.32561123333,1671367874.082,502,193340,99146
187,89554.32561123333,1671367874.082,502,193340,99146
188,89554.34033305,1671367874.082,503,191164,100209
188,89554.34033305,1671367874.082,503,191164,100209
189,89554.35505486667,1671367874.082,502,188179,99052
189,89554.35505486667,1671367874.082,502,188179,99052
190,89554.36977668334,1671367874.082,502,186549,98792
190,89554.36977668334,1671367874.082,502,186549,98792
191,89554.3844985,1671367874.082,502,185754,98689
191,89554.3844985,1671367874.082,502,185754,98689
192,89554.40000906667,1671367874.175,501,184921,98293
192,89554.40000906667,1671367874.175,501,184921,98293
193,89554.41551963333,1671367874.175,501,184160,97686
193,89554.41551963333,1671367874.175,501,184160,97686
194,89554.43103020001,1671367874.175,503,183478,97173
194,89554.43103020001,1671367874.175,503,183478,97173
195,89554.44654076667,1671367874.175,503,182796,96629
195,89554.44654076667,1671367874.175,503,182796,96629
196,89554.46205133334,1671367874.175,504,182000,95972
196,89554.46205133334,1671367874.175,504,182000,95972
197,89554.4775619,1671367874.175,504,181025,95371
197,89554.4775619,1671367874.175,504,181025,95371
198,89554.4941542,1671367874.274,503,179800,94779
198,89554.4941542,1671367874.274,503,179800,94779
199,89554.5107465,1671367874.274,502,178743,94350
199,89554.5107465,1671367874.274,502,178743,94350
200,89554.52733879999,1671367874.274,505,177483,93714
200,89554.52733879999,1671367874.274,505,177483,93714
201,89554.5439311,1671367874.274,507,174674,92700
201,89554.5439311,1671367874.274,507,174674,92700
202,89554.5605234,1671367874.274,507,171786,91973
202,89554.5605234,1671367874.274,507,171786,91973
203,89554.5771157,1671367874.274,508,169739,91743
203,89554.5771157,1671367874.274,508,169739,91743
204,89554.59397026667,1671367874.376,510,166996,91503
204,89554.59397026667,1671367874.376,510,166996,91503
205,89554.61082483333,1671367874.376,512,164031,90576
205,89554.61082483333,1671367874.376,512,164031,90576
206,89554.6276794,1671367874.376,512,162301,90083
206,89554.6276794,1671367874.376,512,162301,90083
207,89554.64453396667,1671367874.376,512,161577,89701
207,89554.64453396667,1671367874.376,512,161577,89701
208,89554.66138853334,1671367874.376,512,161095,89518
208,89554.66138853334,1671367874.376,512,161095,89518
209,89554.6782431,1671367874.376,512,160767,89345
209,89554.6782431,1671367874.376,512,160767,89345
210,89554.693046,1671367874.464,512,160389,89139
210,89554.693046,1671367874.464,512,160389,89139
211,89554.7078489,1671367874.464,514,159958,88915
211,89554.7078489,1671367874.464,514,159958,88915
212,89554.7226518,1671367874.464,512,159383,88635
212,89554.7226518,1671367874.464,512,159383,88635
213,89554.7374547,1671367874.464,515,159260,88326
213,89554.7374547,1671367874.464,515,159260,88326
214,89554.7522576,1671367874.464,514,158785,88028
214,89554.7522576,1671367874.464,514,158785,88028
215,89554.7670605,1671367874.464,514,158386,87816
215,89554.7670605,1671367874.464,514,158386,87816
216,89554.7959447,1671367874.638,511,157889,87594
216,89554.7959447,1671367874.638,511,157889,87594
217,89554.8248289,1671367874.638,514,157436,87405
217,89554.8248289,1671367874.638,514,157436,87405
218,89554.85371309999,1671367874.638,512,157123,87229
218,89554.85371309999,1671367874.638,512,157123,87229
219,89554.88259729999,1671367874.638,515,156826,87047
219,89554.88259729999,1671367874.638,515,156826,87047
220,89554.91148149999,1671367874.638,514,156708,86909
220,89554.91148149999,1671367874.638,514,156708,86909
221,89554.9403657,1671367874.638,514,156466,86830
221,89554.9403657,1671367874.638,514,156466,86830
222,89554.95417966666,1671367874.721,517,156391,86738
222,89554.95417966666,1671367874.721,517,156391,86738
223,89554.96799363333,1671367874.721,512,156569,86620
223,89554.96799363333,1671367874.721,512,156569,86620
224,89554.9818076,1671367874.721,512,156493,86499
224,89554.9818076,1671367874.721,512,156493,86499
225,89554.99562156666,1671367874.721,511,156645,86386
225,89554.99562156666,1671367874.721,511,156645,86386
226,89555.00943553333,1671367874.721,515,156713,86313
226,89555.00943553333,1671367874.721,515,156713,86313
227,89555.0232495,1671367874.721,511,156942,86290
227,89555.0232495,1671367874.721,511,156942,86290
228,89555.04279871666,1671367874.838,512,157300,86263
228,89555.04279871666,1671367874.838,512,157300,86263
229,89555.06234793333,1671367874.838,511,157655,86265
229,89555.06234793333,1671367874.838,511,157655,86265
230,89555.08189715,1671367874.838,515,158306,86403
230,89555.08189715,1671367874.838,515,158306,86403
231,89555.10144636667,1671367874.838,514,159128,86566
231,89555.10144636667,1671367874.838,514,159128,86566
232,89555.12099558333,1671367874.838,514,160351,86792
232,89555.12099558333,1671367874.838,514,160351,86792
233,89555.1405448,1671367874.838,514,161954,87263
233,89555.1405448,1671367874.838,514,161954,87263
234,89555.14578145,1671367874.869,511,164768,88535
234,89555.14578145,1671367874.869,511,164768,88535
235,89555.1510181,1671367874.869,507,167330,90074
235,89555.1510181,1671367874.869,507,167330,90074
236,89555.15625475,1671367874.869,509,168235,90510
236,89555.15625475,1671367874.869,509,168235,90510
237,89555.1614914,1671367874.869,508,168663,90836
237,89555.1614914,1671367874.869,508,168663,90836
238,89555.16672805,1671367874.869,507,169377,91320
238,89555.16672805,1671367874.869,507,169377,91320
239,89555.1719647,1671367874.869,511,170994,92561
239,89555.1719647,1671367874.869,511,170994,92561
240,89555.18320738334,1671367874.937,514,171628,96227
240,89555.18320738334,1671367874.937,514,171628,96227
241,89555.19445006667,1671367874.937,521,170717,98738
241,89555.19445006667,1671367874.937,521,170717,98738
242,89555.20569275,1671367874.937,522,169335,97405
242,89555.20569275,1671367874.937,522,169335,97405
243,89555.21693543333,1671367874.937,523,168712,96873
243,89555.21693543333,1671367874.937,523,168712,96873
244,89555.22817811667,1671367874.937,527,168528,96603
244,89555.22817811667,1671367874.937,527,168528,96603
245,89555.2394208,1671367874.937,530,168533,96711
245,89555.2394208,1671367874.937,530,168533,96711
246,89555.25458915,1671367875.028,531,168390,96807
246,89555.25458915,1671367875.028,531,168390,96807
247,89555.2697575,1671367875.028,533,168353,97165
247,89555.2697575,1671367875.028,533,168353,97165
248,89555.28492584999,1671367875.028,537,168220,97261
248,89555.28492584999,1671367875.028,537,168220,97261
249,89555.30009419999,1671367875.028,539,168004,97418
249,89555.30009419999,1671367875.028,539,168004,97418
250,89555.30909765867,1671367875.028,542,167758,97370
250,89555.3160970361,1671367875.028,542,167758,97370
251,89555.32309641354,1671367875.028,544,167420,96810
251,89555.33009579098,1671367875.028,544,167420,96810
252,89555.33709516842,1671367875.132,542,166907,95329
252,89555.34409454586,1671367875.132,542,166907,95329
253,89555.3510939233,1671367875.132,542,166029,93499
253,89555.35809330073,1671367875.132,542,166029,93499
254,89555.36509267817,1671367875.132,537,165089,91433
254,89555.37209205561,1671367875.132,537,165089,91433
255,89555.37909143305,1671367875.132,527,163410,88699
255,89555.38609081048,1671367875.132,527,163410,88699
256,89555.39309018792,1671367875.132,520,162011,87387
256,89555.40008956536,1671367875.132,520,162011,87387
257,89555.4070889428,1671367875.132,518,161028,86712
257,89555.41408832023,1671367875.132,518,161028,86712
258,89555.42108769767,1671367875.211,518,160577,86368
258,89555.42808707511,1671367875.211,518,160577,86368
259,89555.43508645255,1671367875.211,517,160221,86222
259,89555.44208582999,1671367875.211,517,160221,86222
260,89555.4703306291,1671367875.211,518,159966,86025
260,89555.47707925885,1671367875.211,518,159966,86025
261,89555.4838278886,1671367875.211,519,159531,85627
261,89555.49057651835,1671367875.211,519,159531,85627
262,89555.4973251481,1671367875.211,518,159056,85207
262,89555.50407377785,1671367875.211,518,159056,85207
263,89555.5108224076,1671367875.211,518,158617,84912
263,89555.51757103734,1671367875.211,518,158617,84912
264,89555.52431966709,1671367875.299,516,158407,84762
264,89555.53106829684,1671367875.299,516,158407,84762
265,89555.53781692659,1671367875.299,515,157957,84508
265,89555.54456555634,1671367875.299,515,157957,84508
266,89555.55131418609,1671367875.299,515,157324,84019
266,89555.55806281584,1671367875.299,515,157324,84019
267,89555.56481144558,1671367875.299,516,156204,83290
267,89555.57156007533,1671367875.299,516,156204,83290
268,89555.57830870508,1671367875.299,517,154474,82403
268,89555.58505733483,1671367875.299,517,154474,82403
269,89555.59180596458,1671367875.299,515,152462,81558
269,89555.59855459433,1671367875.299,515,152462,81558
270,89555.61065949425,1671367875.401,515,151135,80972
270,89555.61752841834,1671367875.401,515,151135,80972
271,89555.62439734243,1671367875.401,514,150340,80569
271,89555.63126626652,1671367875.401,514,150340,80569
272,89555.6381351906,1671367875.401,514,149598,80150
272,89555.64500411469,1671367875.401,514,149598,80150
273,89555.65187303878,1671367875.401,515,148996,79811
273,89555.65874196286,1671367875.401,515,148996,79811
274,89555.66561088695,1671367875.401,514,148404,79408
274,89555.67247981104,1671367875.401,514,148404,79408
275,89555.67934873512,1671367875.401,515,147615,78937
275,89555.68621765921,1671367875.401,515,147615,78937
276,89555.6930865833,1671367875.495,517,146784,78386
276,89555.69995550739,1671367875.495,517,146784,78386
277,89555.70682443147,1671367875.495,518,146369,77972
277,89555.71369335556,1671367875.495,518,146369,77972
278,89555.72056227965,1671367875.495,518,146177,77764
278,89555.72743120373,1671367875.495,518,146177,77764
279,89555.73430012782,1671367875.495,517,146187,77700
279,89555.74116905191,1671367875.495,517,146187,77700
280,89555.77582430601,1671367875.495,519,146335,77765
280,89555.7832289271,1671367875.495,519,146335,77765
281,89555.7906335482,1671367875.495,520,146402,77779
281,89555.79803816929,1671367875.495,520,146402,77779
282,89555.80544279038,1671367875.583,519,146499,77736
282,89555.81284741148,1671367875.583,519,146499,77736
283,89555.82025203257,1671367875.583,520,146285,77642
283,89555.82765665367,1671367875.583,520,146285,77642
284,89555.83506127476,1671367875.583,520,146300,77510
284,89555.84246589585,1671367875.583,520,146300,77510
285,89555.84987051695,1671367875.583,521,146325,77433
285,89555.85727513804,1671367875.583,521,146325,77433
286,89555.86467975914,1671367875.583,522,146281,77431
286,89555.87208438023,1671367875.583,522,146281,77431
287,89555.87948900132,1671367875.583,523,146363,77395
287,89555.88689362242,1671367875.583,523,146363,77395
288,89555.89429824351,1671367875.679,522,146358,77379
288,89555.9017028646,1671367875.679,522,146358,77379
289,89555.9091074857,1671367875.679,521,146490,77399
289,89555.91651210679,1671367875.679,521,146490,77399
290,89555.92730219313,1671367875.679,522,146433,77422
290,89555.93460909651,1671367875.679,522,146433,77422
291,89555.9419159999,1671367875.679,523,146491,77430
291,89555.94922290328,1671367875.679,523,146491,77430
292,89555.95652980666,1671367875.679,523,146408,77449
292,89555.96383671004,1671367875.679,523,146408,77449
293,89555.97114361342,1671367875.679,523,146474,77506
293,89555.9784505168,1671367875.679,523,146474,77506
294,89555.98575742019,1671367875.778,523,146552,77571
294,89555.99306432357,1671367875.778,523,146552,77571
295,89556.00037122695,1671367875.778,522,146506,77712
295,89556.00767813034,1671367875.778,522,146506,77712
296,89556.01498503372,1671367875.778,522,146783,77920
296,89556.0222919371,1671367875.778,522,146783,77920
297,89556.02959884048,1671367875.778,522,147162,78226
297,89556.03690574387,1671367875.778,522,147162,78226
298,89556.04421264725,1671367875.778,521,147806,78587
298,89556.05151955063,1671367875.778,521,147806,78587
299,89556.05882645401,1671367875.778,522,148911,79284
299,89556.0661333574,1671367875.778,522,148911,79284
300,89556.09061937597,1671367875.867,521,150355,80130
300,89556.09834263139,1671367875.867,521,150355,80130
301,89556.10606588681,1671367875.867,523,152214,81173
301,89556.11378914223,1671367875.867,523,152214,81173
302,89556.12151239764,1671367875.867,521,153915,82109
302,89556.12923565306,1671367875.867,521,153915,82109
303,89556.13695890848,1671367875.867,523,156252,83014
303,89556.1446821639,1671367875.867,523,156252,83014
304,89556.15240541931,1671367875.867,527,157298,83599
304,89556.16012867473,1671367875.867,527,157298,83599
305,89556.16785193015,1671367875.867,529,157373,83756
305,89556.17557518557,1671367875.867,529,157373,83756
306,89556.18329844098,1671367875.956,531,157347,83798
306,89556.1910216964,1671367875.956,531,157347,83798
307,89556.19874495182,1671367875.956,530,157252,83649
307,89556.20646820724,1671367875.956,530,157252,83649
308,89556.21419146266,1671367875.956,532,157137,83616
308,89556.22191471807,1671367875.956,532,157137,83616
309,89556.22963797349,1671367875.956,535,157206,83649
309,89556.23736122891,1671367875.956,535,157206,83649
310,89556.23825925322,1671367875.956,535,156988,83618
310,89556.24523047311,1671367875.956,535,156988,83618
311,89556.252201693,1671367875.956,535,156926,83630
311,89556.25917291289,1671367875.956,535,156926,83630
312,89556.26614413278,1671367876.05,534,156897,83649
312,89556.27311535267,1671367876.05,534,156897,83649
313,89556.28008657256,1671367876.05,534,156839,83626
313,89556.28705779245,1671367876.05,534,156839,83626
314,89556.29402901234,1671367876.05,535,156754,83652
314,89556.30100023223,1671367876.05,535,156754,83652
315,89556.30797145212,1671367876.05,536,156723,83650
315,89556.314942672,1671367876.05,536,156723,83650
316,89556.3219138919,1671367876.05,535,156589,83606
316,89556.32888511178,1671367876.05,535,156589,83606
317,89556.33585633167,1671367876.05,537,156561,83463
317,89556.34282755156,1671367876.05,537,156561,83463
318,89556.34979877145,1671367876.167,536,156479,83293
318,89556.35676999134,1671367876.167,536,156479,83293
319,89556.36374121123,1671367876.167,536,156513,83144
319,89556.37071243112,1671367876.167,536,156513,83144
320,89556.4023144526,1671367876.167,533,156376,83034
320,89556.41090542093,1671367876.167,533,156376,83034
321,89556.41949638925,1671367876.167,532,156509,82936
321,89556.42808735758,1671367876.167,532,156509,82936
322,89556.4366783259,1671367876.167,529,156620,82890
322,89556.44526929423,1671367876.167,529,156620,82890
323,89556.45386026255,1671367876.167,528,156812,82903
323,89556.46245123088,1671367876.167,528,156812,82903
324,89556.4710421992,1671367876.235,527,156740,82886
324,89556.47963316753,1671367876.235,527,156740,82886
325,89556.48822413586,1671367876.235,528,156847,82925
325,89556.49681510418,1671367876.235,528,156847,82925
326,89556.50540607251,1671367876.235,524,156801,82931
326,89556.51399704083,1671367876.235,524,156801,82931
327,89556.52258800916,1671367876.235,523,156809,82940
327,89556.53117897749,1671367876.235,523,156809,82940
328,89556.53976994581,1671367876.235,523,156672,82938
328,89556.54836091414,1671367876.235,523,156672,82938
329,89556.55695188246,1671367876.235,524,156652,82931
329,89556.56554285079,1671367876.235,524,156652,82931
330,89556.54508077425,1671367876.347,524,156563,82899
330,89556.55048191323,1671367876.347,524,156563,82899
331,89556.55588305222,1671367876.347,525,156623,82868
331,89556.56128419121,1671367876.347,525,156623,82868
332,89556.5666853302,1671367876.347,525,156622,82855
332,89556.57208646918,1671367876.347,525,156622,82855
333,89556.57748760817,1671367876.347,526,156761,82893
333,89556.58288874716,1671367876.347,526,156761,82893
334,89556.58828988615,1671367876.347,524,156736,82894
334,89556.59369102513,1671367876.347,524,156736,82894
335,89556.59909216412,1671367876.347,523,156872,82978
335,89556.60449330311,1671367876.347,523,156872,82978
336,89556.6098944421,1671367876.423,521,156913,83033
336,89556.61529558108,1671367876.423,521,156913,83033
337,89556.62069672007,1671367876.423,518,156872,83056
337,89556.62609785906,1671367876.423,518,156872,83056
338,89556.63149899805,1671367876.423,517,156970,83122
338,89556.63690013703,1671367876.423,517,156970,83122
339,89556.64230127602,1671367876.423,519,156957,83154
339,89556.64770241501,1671367876.423,519,156957,83154
340,89556.70843982129,1671367876.423,517,157042,83118
340,89556.7145093294,1671367876.423,517,157042,83118
341,89556.7205788375,1671367876.423,517,156771,83018
341,89556.7266483456,1671367876.423,517,156771,83018
342,89556.73271785371,1671367876.536,518,156859,83012
342,89556.73878736181,1671367876.536,518,156859,83012
343,89556.74485686992,1671367876.536,515,156844,83163
343,89556.75092637802,1671367876.536,515,156844,83163
344,89556.75699588613,1671367876.536,515,156679,83064
344,89556.76306539423,1671367876.536,515,156679,83064
345,89556.76913490234,1671367876.536,516,156435,82901
345,89556.77520441044,1671367876.536,516,156435,82901
346,89556.78127391855,1671367876.536,515,156355,82742
346,89556.78734342665,1671367876.536,515,156355,82742
347,89556.79341293476,1671367876.536,515,156121,82559
347,89556.79948244286,1671367876.536,515,156121,82559
348,89556.80555195097,1671367876.618,515,155951,82422
348,89556.81162145907,1671367876.618,515,155951,82422
349,89556.81769096717,1671367876.618,515,155861,82266
349,89556.82376047528,1671367876.618,515,155861,82266
350,89556.87572483621,1671367876.618,512,155766,82265
350,89556.88284397338,1671367876.618,512,155766,82265
351,89556.88996311055,1671367876.618,511,155731,82277
351,89556.89708224771,1671367876.618,511,155731,82277
352,89556.90420138488,1671367876.618,512,155865,82230
352,89556.91132052205,1671367876.618,512,155865,82230
353,89556.91843965922,1671367876.618,509,156010,82297
353,89556.92555879639,1671367876.618,509,156010,82297
354,89556.93267793355,1671367876.705,509,156304,82494
354,89556.93979707072,1671367876.705,509,156304,82494
355,89556.94691620789,1671367876.705,509,156742,82706
355,89556.95403534506,1671367876.705,509,156742,82706
356,89556.96115448223,1671367876.705,507,157511,83003
356,89556.9682736194,1671367876.705,507,157511,83003
357,89556.97539275656,1671367876.705,508,158305,83272
357,89556.98251189373,1671367876.705,508,158305,83272
358,89556.9896310309,1671367876.705,508,159320,83305
358,89556.99675016807,1671367876.705,508,159320,83305
359,89557.00386930523,1671367876.705,506,159815,83169
359,89557.0109884424,1671367876.705,506,159815,83169
360,89557.01680235699,1671367876.812,506,160313,83104
360,89557.0236171147,1671367876.812,506,160313,83104
361,89557.03043187241,1671367876.812,504,160985,83385
361,89557.03724663012,1671367876.812,504,160985,83385
362,89557.04406138783,1671367876.812,504,161358,83841
362,89557.05087614554,1671367876.812,504,161358,83841
363,89557.05769090325,1671367876.812,505,163115,85207
363,89557.06450566096,1671367876.812,505,163115,85207
364,89557.07132041868,1671367876.812,505,167013,86841
364,89557.07813517639,1671367876.812,505,167013,86841
365,89557.0849499341,1671367876.812,505,169945,88163
365,89557.09176469181,1671367876.812,505,169945,88163
366,89557.09857944952,1671367876.9,505,172378,89910
366,89557.10539420723,1671367876.9,505,172378,89910
367,89557.11220896494,1671367876.9,505,173768,92013
367,89557.11902372265,1671367876.9,505,173768,92013
368,89557.12583848037,1671367876.9,506,174447,93557
368,89557.13265323808,1671367876.9,506,174447,93557
369,89557.13946799579,1671367876.9,508,174832,94023
369,89557.1462827535,1671367876.9,508,174832,94023
370,89557.18292504747,1671367876.9,507,175502,93611
370,89557.18990587286,1671367876.9,507,175502,93611
371,89557.19688669825,1671367876.9,508,174312,92797
371,89557.20386752364,1671367876.9,508,174312,92797
372,89557.21084834903,1671367876.992,509,172848,92786
372,89557.21782917442,1671367876.992,509,172848,92786
373,89557.22480999981,1671367876.992,509,168135,92301
373,89557.2317908252,1671367876.992,509,168135,92301
374,89557.23877165059,1671367876.992,509,164141,90773
374,89557.24575247598,1671367876.992,509,164141,90773
375,89557.25273330137,1671367876.992,509,161747,89415
375,89557.25971412676,1671367876.992,509,161747,89415
376,89557.26669495215,1671367876.992,509,160780,88782
376,89557.27367577754,1671367876.992,509,160780,88782
377,89557.28065660293,1671367876.992,514,159456,88028
377,89557.28763742832,1671367876.992,514,159456,88028
378,89557.29461825371,1671367877.082,519,157484,86685
378,89557.3015990791,1671367877.082,519,157484,86685
379,89557.3085799045,1671367877.082,523,155153,84919
379,89557.31556072988,1671367877.082,523,155153,84919
380,89557.33400829203,1671367877.082,525,153738,84093
380,89557.34106856983,1671367877.082,525,153738,84093
381,89557.34812884763,1671367877.082,527,153322,84039
381,89557.35518912543,1671367877.082,527,153322,84039
382,89557.36224940323,1671367877.082,526,152826,83513
382,89557.36930968103,1671367877.082,526,152826,83513
383,89557.37636995883,1671367877.082,526,152215,83058
383,89557.38343023663,1671367877.082,526,152215,83058
384,89557.39049051443,1671367877.175,529,151879,82948
384,89557.39755079223,1671367877.175,529,151879,82948
385,89557.40461107003,1671367877.175,528,151484,82757
385,89557.41167134783,1671367877.175,528,151484,82757
386,89557.41873162563,1671367877.175,532,150657,82464
386,89557.42579190343,1671367877.175,532,150657,82464
387,89557.43285218123,1671367877.175,536,149609,82117
387,89557.43991245903,1671367877.175,536,149609,82117
388,89557.44697273683,1671367877.175,539,148522,81587
388,89557.45403301463,1671367877.175,539,148522,81587
389,89557.46109329243,1671367877.175,542,147834,81143
389,89557.46815357023,1671367877.175,542,147834,81143
390,89557.4872117192,1671367877.276,544,147782,81081
390,89557.49448037294,1671367877.276,544,147782,81081
391,89557.50174902669,1671367877.276,542,147697,81096
391,89557.50901768044,1671367877.276,542,147697,81096
392,89557.51628633418,1671367877.276,542,147765,81144
392,89557.52355498793,1671367877.276,542,147765,81144
393,89557.53082364167,1671367877.276,541,147755,81209
393,89557.53809229542,1671367877.276,541,147755,81209
394,89557.54536094917,1671367877.276,540,147703,81250
394,89557.55262960291,1671367877.276,540,147703,81250
395,89557.55989825666,1671367877.276,539,147574,81147
395,89557.5671669104,1671367877.276,539,147574,81147
396,89557.57443556415,1671367877.382,541,147205,80917
396,89557.5817042179,1671367877.382,541,147205,80917
397,89557.58897287164,1671367877.382,542,146792,80751
397,89557.59624152539,1671367877.382,542,146792,80751
398,89557.60351017913,1671367877.382,543,146649,80677
398,89557.61077883288,1671367877.382,543,146649,80677
399,89557.61804748663,1671367877.382,542,146561,80702
399,89557.62531614037,1671367877.382,542,146561,80702
400,89557.65991762839,1671367877.382,538,146601,80668
400,89557.66819555509,1671367877.382,538,146601,80668
401,89557.67647348178,1671367877.382,533,147107,80881
401,89557.68475140848,1671367877.382,533,147107,80881
402,89557.69302933518,1671367877.458,525,147695,81107
402,89557.70130726187,1671367877.458,525,147695,81107
403,89557.70958518857,1671367877.458,519,148472,81831
403,89557.71786311526,1671367877.458,519,148472,81831
404,89557.72614104196,1671367877.458,518,148514,82065
404,89557.73441896866,1671367877.458,518,148514,82065
405,89557.74269689535,1671367877.458,522,148405,82110
405,89557.75097482205,1671367877.458,522,148405,82110
406,89557.75925274874,1671367877.458,519,148387,82143
406,89557.76753067544,1671367877.458,519,148387,82143
407,89557.77580860213,1671367877.458,518,148768,82300
407,89557.78408652883,1671367877.458,518,148768,82300
408,89557.79236445553,1671367877.549,519,149552,82707
408,89557.80064238222,1671367877.549,519,149552,82707
409,89557.80892030892,1671367877.549,516,150800,83886
409,89557.81719823561,1671367877.549,516,150800,83886
410,89557.79928957461,1671367877.549,516,152542,85364
410,89557.80606355939,1671367877.549,516,152542,85364
411,89557.81283754416,1671367877.549,515,153675,86934
411,89557.81961152893,1671367877.549,515,153675,86934
412,89557.8263855137,1671367877.549,517,157871,88161
412,89557.83315949848,1671367877.549,517,157871,88161
413,89557.83993348325,1671367877.549,515,163132,88348
413,89557.84670746802,1671367877.549,515,163132,88348
414,89557.8534814528,1671367877.646,516,165802,88461
414,89557.86025543757,1671367877.646,516,165802,88461
415,89557.86702942234,1671367877.646,517,168495,89442
415,89557.87380340711,1671367877.646,517,168495,89442
416,89557.88057739189,1671367877.646,516,171416,90637
416,89557.88735137666,1671367877.646,516,171416,90637
417,89557.89412536143,1671367877.646,515,173550,91787
417,89557.9008993462,1671367877.646,515,173550,91787
418,89557.90767333098,1671367877.646,517,173698,93508
418,89557.91444731575,1671367877.646,517,173698,93508
419,89557.92122130052,1671367877.646,517,175685,95805
419,89557.9279952853,1671367877.646,517,175685,95805
420,89557.95884859288,1671367877.736,518,178379,101589
420,89557.96645364718,1671367877.736,518,178379,101589
421,89557.97405870148,1671367877.736,520,175406,102825
421,89557.98166375578,1671367877.736,520,175406,102825
422,89557.98926881008,1671367877.736,522,176726,103212
422,89557.99687386438,1671367877.736,522,176726,103212
423,89558.00447891868,1671367877.736,520,177240,98113
423,89558.01208397298,1671367877.736,520,177240,98113
424,89558.01968902728,1671367877.736,512,176068,91443
424,89558.02729408158,1671367877.736,512,176068,91443
425,89558.03489913588,1671367877.736,510,174699,89296
425,89558.04250419018,1671367877.736,510,174699,89296
426,89558.05010924448,1671367877.831,509,173056,88669
426,89558.05771429877,1671367877.831,509,173056,88669
427,89558.06531935307,1671367877.831,506,171429,87351
427,89558.07292440737,1671367877.831,506,171429,87351
428,89558.08052946167,1671367877.831,506,169849,86979
428,89558.08813451597,1671367877.831,506,169849,86979
429,89558.09573957027,1671367877.831,510,168650,87234
429,89558.10334462457,1671367877.831,510,168650,87234
430,89558.11190313128,1671367877.831,511,167947,87511
430,89558.11928901632,1671367877.831,511,167947,87511
431,89558.12667490136,1671367877.831,512,167620,87622
431,89558.1340607864,1671367877.831,512,167620,87622
432,89558.14144667143,1671367877.923,514,167694,87741
432,89558.14883255647,1671367877.923,514,167694,87741
433,89558.15621844151,1671367877.923,515,167587,87550
433,89558.16360432655,1671367877.923,515,167587,87550
434,89558.17099021158,1671367877.923,515,166653,86945
434,89558.17837609662,1671367877.923,515,166653,86945
435,89558.18576198166,1671367877.923,516,165074,87080
435,89558.1931478667,1671367877.923,516,165074,87080
436,89558.20053375173,1671367877.923,512,164147,87251
436,89558.20791963677,1671367877.923,512,164147,87251
437,89558.21530552181,1671367877.923,515,163200,87138
437,89558.22269140685,1671367877.923,515,163200,87138
438,89558.23007729188,1671367878.021,515,162152,86650
438,89558.23746317692,1671367878.021,515,162152,86650
439,89558.24484906196,1671367878.021,516,160882,85929
439,89558.252234947,1671367878.021,516,160882,85929
440,89558.2682015361,1671367878.021,516,159735,85358
440,89558.27568219134,1671367878.021,516,159735,85358
441,89558.28316284656,1671367878.021,517,158949,84965
441,89558.2906435018,1671367878.021,517,158949,84965
442,89558.29812415702,1671367878.021,516,158497,84765
442,89558.30560481225,1671367878.021,516,158497,84765
443,89558.31308546748,1671367878.021,516,158397,84687
443,89558.32056612271,1671367878.021,516,158397,84687
444,89558.32804677794,1671367878.112,516,158356,84745
444,89558.33552743317,1671367878.112,516,158356,84745
445,89558.3430080884,1671367878.112,516,158530,84845
445,89558.35048874363,1671367878.112,516,158530,84845
446,89558.35796939886,1671367878.112,515,158517,84867
446,89558.36545005409,1671367878.112,515,158517,84867
447,89558.37293070932,1671367878.112,516,158578,84853
447,89558.38041136455,1671367878.112,516,158578,84853
448,89558.38789201977,1671367878.112,516,158615,84887
448,89558.395372675,1671367878.112,516,158615,84887
449,89558.40285333023,1671367878.112,516,159008,85019
449,89558.41033398546,1671367878.112,516,159008,85019
450,89558.42379440975,1671367878.2,511,159401,85204
450,89558.4309206912,1671367878.2,511,159401,85204
451,89558.43804697265,1671367878.2,510,159923,85447
451,89558.44517325409,1671367878.2,510,159923,85447
452,89558.45229953554,1671367878.2,507,160483,85754
452,89558.45942581698,1671367878.2,507,160483,85754
453,89558.46655209843,1671367878.2,508,161646,86412
453,89558.47367837987,1671367878.2,508,161646,86412
454,89558.48080466132,1671367878.2,508,163047,87384
454,89558.48793094276,1671367878.2,508,163047,87384
455,89558.49505722421,1671367878.2,509,163957,88203
455,89558.50218350565,1671367878.2,509,163957,88203
456,89558.5093097871,1671367878.299,510,164633,88875
456,89558.51643606854,1671367878.299,510,164633,88875
457,89558.52356234999,1671367878.299,511,165546,89986
457,89558.53068863144,1671367878.299,511,165546,89986
458,89558.53781491288,1671367878.299,510,166956,91825
458,89558.54494119433,1671367878.299,510,166956,91825
459,89558.55206747577,1671367878.299,512,168002,92745
459,89558.55919375722,1671367878.299,512,168002,92745
460,89558.57909221653,1671367878.299,509,168674,93361
460,89558.58678888055,1671367878.299,509,168674,93361
461,89558.59448554457,1671367878.299,511,169257,93671
461,89558.60218220859,1671367878.299,511,169257,93671
462,89558.60987887261,1671367878.411,511,169886,93966
462,89558.61757553663,1671367878.411,511,169886,93966
463,89558.62527220065,1671367878.411,511,170175,94150
463,89558.63296886467,1671367878.411,511,170175,94150
464,89558.64066552868,1671367878.411,511,170513,94242
464,89558.6483621927,1671367878.411,511,170513,94242
465,89558.65605885672,1671367878.411,511,170731,94296
465,89558.66375552074,1671367878.411,511,170731,94296
466,89558.67145218476,1671367878.411,510,170836,94344
466,89558.67914884878,1671367878.411,510,170836,94344
467,89558.6868455128,1671367878.411,510,170908,94342
467,89558.69454217682,1671367878.411,510,170908,94342
468,89558.70223884084,1671367878.488,510,171056,94358
468,89558.70993550486,1671367878.488,510,171056,94358
469,89558.71763216887,1671367878.488,509,171058,94349
469,89558.7253288329,1671367878.488,509,171058,94349
470,89558.74842066762,1671367878.488,510,171257,94307
470,89558.75522520836,1671367878.488,510,171257,94307
471,89558.7620297491,1671367878.488,510,171599,94551
471,89558.76883428983,1671367878.488,510,171599,94551
472,89558.77563883057,1671367878.488,510,171774,94542
472,89558.78244337131,1671367878.488,510,171774,94542
473,89558.78924791205,1671367878.488,509,171821,94080
473,89558.79605245279,1671367878.488,509,171821,94080
474,89558.80285699353,1671367878.575,506,171640,93503
474,89558.80966153427,1671367878.575,506,171640,93503
475,89558.816466075,1671367878.575,507,171598,93225
475,89558.82327061574,1671367878.575,507,171598,93225
476,89558.83007515648,1671367878.575,504,171402,93104
476,89558.83687969722,1671367878.575,504,171402,93104
477,89558.84368423796,1671367878.575,503,171430,92730
477,89558.8504887787,1671367878.575,503,171430,92730
478,89558.85729331944,1671367878.575,505,169880,90995
478,89558.86409786018,1671367878.575,505,169880,90995
479,89558.87090240091,1671367878.575,504,169146,91042
479,89558.87770694165,1671367878.575,504,169146,91042
480,89558.88652866853,1671367878.674,504,168969,91143
480,89558.89333974279,1671367878.674,504,168969,91143
481,89558.90015081705,1671367878.674,504,168693,91341
481,89558.9069618913,1671367878.674,504,168693,91341
482,89558.91377296556,1671367878.674,505,167843,90804
482,89558.92058403982,1671367878.674,505,167843,90804
483,89558.92739511408,1671367878.674,507,166347,89511
483,89558.93420618834,1671367878.674,507,166347,89511
484,89558.9410172626,1671367878.674,506,164392,88235
484,89558.94782833685,1671367878.674,506,164392,88235
485,89558.95463941111,1671367878.674,507,162690,87348
485,89558.96145048537,1671367878.674,507,162690,87348
486,89558.96826155962,1671367878.772,508,161623,86895
486,89558.97507263388,1671367878.772,508,161623,86895
487,89558.98188370814,1671367878.772,508,160840,86670
487,89558.9886947824,1671367878.772,508,160840,86670
488,89558.99550585666,1671367878.772,508,160498,86556
488,89559.00231693091,1671367878.772,508,160498,86556
489,89559.00912800517,1671367878.772,509,160246,86484
489,89559.01593907943,1671367878.772,509,160246,86484
490,89559.05201155471,1671367878.772,508,160180,86478
490,89559.0596561291,1671367878.772,508,160180,86478
491,89559.0673007035,1671367878.772,507,160094,86488
491,89559.07494527788,1671367878.772,507,160094,86488
492,89559.08258985227,1671367878.862,507,160053,86477
492,89559.09023442667,1671367878.862,507,160053,86477
493,89559.09787900106,1671367878.862,506,160179,86550
493,89559.10552357545,1671367878.862,506,160179,86550
494,89559.11316814984,1671367878.862,508,160479,86693
494,89559.12081272423,1671367878.862,508,160479,86693
495,89559.12845729862,1671367878.862,508,160998,86949
495,89559.13610187301,1671367878.862,508,160998,86949
496,89559.1437464474,1671367878.862,507,161859,87569
496,89559.15139102179,1671367878.862,507,161859,87569
497,89559.15903559618,1671367878.862,507,163490,88647
497,89559.16668017057,1671367878.862,507,163490,88647
498,89559.17432474496,1671367878.956,505,166105,90799
498,89559.18196931935,1671367878.956,505,166105,90799
499,89559.18961389374,1671367878.956,505,170661,94854
499,89559.19725846814,1671367878.956,505,170661,94854
500,89559.20518629249,1671367878.956,507,171949,95991
500,89559.21246262721,1671367878.956,507,171949,95991
501,89559.21973896194,1671367878.956,509,171997,95739
501,89559.22701529667,1671367878.956,509,171997,95739
502,89559.2342916314,1671367878.956,510,172217,95476
502,89559.24156796612,1671367878.956,510,172217,95476
503,89559.24884430085,1671367878.956,514,172107,94833
503,89559.25612063557,1671367878.956,514,172107,94833
504,89559.2633969703,1671367879.05,514,172204,94342
504,89559.27067330503,1671367879.05,514,172204,94342
505,89559.27794963976,1671367879.05,515,172162,93978
505,89559.28522597448,1671367879.05,515,172162,93978
506,89559.29250230921,1671367879.05,515,172105,93533
506,89559.29977864394,1671367879.05,515,172105,93533
507,89559.30705497866,1671367879.05,517,172075,93167
507,89559.31433131339,1671367879.05,517,172075,93167
508,89559.32160764812,1671367879.05,515,171914,92831
508,89559.32888398285,1671367879.05,515,171914,92831
509,89559.33616031757,1671367879.05,517,171775,92547
509,89559.3434366523,1671367879.05,517,171775,92547
510,89559.3627016933,1671367879.145,517,171613,92208
510,89559.37006611569,1671367879.145,517,171613,92208
511,89559.37743053808,1671367879.145,516,171539,91897
511,89559.38479496047,1671367879.145,516,171539,91897
512,89559.39215938286,1671367879.145,516,171454,91764
512,89559.39952380524,1671367879.145,516,171454,91764
513,89559.40688822763,1671367879.145,515,171427,91799
513,89559.41425265002,1671367879.145,515,171427,91799
514,89559.42161707241,1671367879.145,516,171359,91927
514,89559.4289814948,1671367879.145,516,171359,91927
515,89559.43634591719,1671367879.145,515,171458,92030
515,89559.44371033958,1671367879.145,515,171458,92030
516,89559.45107476196,1671367879.241,515,171436,92139
516,89559.45843918435,1671367879.241,515,171436,92139
517,89559.46580360674,1671367879.241,515,171544,92202
517,89559.47316802913,1671367879.241,515,171544,92202
518,89559.48053245152,1671367879.241,512,171595,92277
518,89559.4878968739,1671367879.241,512,171595,92277
519,89559.4952612963,1671367879.241,514,171685,92355
519,89559.50262571868,1671367879.241,514,171685,92355
520,89559.52182776887,1671367879.241,512,171698,92500
520,89559.52932354232,1671367879.241,512,171698,92500
521,89559.53681931576,1671367879.241,514,171759,92551
521,89559.54431508921,1671367879.241,514,171759,92551
522,89559.55181086266,1671367879.329,512,171870,92587
522,89559.5593066361,1671367879.329,512,171870,92587
523,89559.56680240955,1671367879.329,511,171962,92651
523,89559.574298183,1671367879.329,511,171962,92651
524,89559.58179395644,1671367879.329,511,172032,92742
524,89559.58928972989,1671367879.329,511,172032,92742
525,89559.59678550334,1671367879.329,510,172148,92694
525,89559.60428127678,1671367879.329,510,172148,92694
526,89559.61177705023,1671367879.329,510,172158,92682
526,89559.61927282368,1671367879.329,510,172158,92682
527,89559.62676859713,1671367879.329,510,172110,92687
527,89559.63426437057,1671367879.329,510,172110,92687
528,89559.64176014402,1671367879.424,509,172678,93066
528,89559.64925591747,1671367879.424,509,172678,93066
529,89559.65675169091,1671367879.424,509,172709,93177
529,89559.66424746436,1671367879.424,509,172709,93177
530,89559.67244407865,1671367879.424,510,172975,93301
530,89559.6797010777,1671367879.424,510,172975,93301
531,89559.68695807674,1671367879.424,509,173455,93530
531,89559.69421507578,1671367879.424,509,173455,93530
532,89559.70147207483,1671367879.424,508,173769,93653
532,89559.70872907387,1671367879.424,508,173769,93653
533,89559.71598607292,1671367879.424,507,173979,93742
533,89559.72324307196,1671367879.424,507,173979,93742
534,89559.730500071,1671367879.527,506,174065,93710
534,89559.73775707005,1671367879.527,506,174065,93710
535,89559.74501406909,1671367879.527,507,174173,93736
535,89559.75227106814,1671367879.527,507,174173,93736
536,89559.75952806718,1671367879.527,508,174203,93768
536,89559.76678506623,1671367879.527,508,174203,93768
537,89559.77404206527,1671367879.527,506,174193,93771
537,89559.78129906431,1671367879.527,506,174193,93771
538,89559.78855606336,1671367879.527,508,174328,93867
538,89559.7958130624,1671367879.527,508,174328,93867
539,89559.80307006145,1671367879.527,507,174326,93855
539,89559.81032706049,1671367879.527,507,174326,93855
540,89559.84058813742,1671367879.632,506,174388,93874
540,89559.84866625287,1671367879.632,506,174388,93874
541,89559.85674436833,1671367879.632,507,174426,93916
541,89559.86482248378,1671367879.632,507,174426,93916
542,89559.87290059924,1671367879.632,506,174390,93927
542,89559.88097871469,1671367879.632,506,174390,93927
543,89559.88905683014,1671367879.632,506,174433,93963
543,89559.8971349456,1671367879.632,506,174433,93963
544,89559.90521306105,1671367879.632,507,174474,93987
544,89559.9132911765,1671367879.632,507,174474,93987
545,89559.92136929196,1671367879.632,507,174422,94007
545,89559.92944740741,1671367879.632,507,174422,94007
546,89559.93752552287,1671367879.715,505,174479,94015
546,89559.94560363832,1671367879.715,505,174479,94015
547,89559.95368175377,1671367879.715,506,174595,94128
547,89559.96175986923,1671367879.715,506,174595,94128
548,89559.96983798468,1671367879.715,506,174622,94165
548,89559.97791610014,1671367879.715,506,174622,94165
549,89559.98599421559,1671367879.715,506,174734,94209
549,89559.99407233104,1671367879.715,506,174734,94209
550,89559.99861137611,1671367879.715,506,174745,94213
550,89560.00523479894,1671367879.715,506,174745,94213
551,89560.01185822177,1671367879.715,504,174716,94280
551,89560.0184816446,1671367879.715,504,174716,94280
552,89560.02510506743,1671367879.799,505,174805,94391
552,89560.03172849026,1671367879.799,505,174805,94391
553,89560.03835191308,1671367879.799,505,174903,94435
553,89560.04497533591,1671367879.799,505,174903,94435
554,89560.05159875874,1671367879.799,505,174877,94404
554,89560.05822218157,1671367879.799,505,174877,94404
555,89560.0648456044,1671367879.799,505,174882,94374
555,89560.07146902723,1671367879.799,505,174882,94374
556,89560.07809245006,1671367879.799,505,174743,94343
556,89560.08471587289,1671367879.799,505,174743,94343
557,89560.09133929572,1671367879.799,505,174749,94371
557,89560.09796271854,1671367879.799,505,174749,94371
558,89560.10458614137,1671367879.894,503,174735,94523
558,89560.1112095642,1671367879.894,503,174735,94523
559,89560.11783298703,1671367879.894,504,174764,94659
559,89560.12445640986,1671367879.894,504,174764,94659
560,89560.14237388216,1671367879.894,504,174797,94753
560,89560.14953552064,1671367879.894,504,174797,94753
561,89560.15669715912,1671367879.894,504,174908,94998
561,89560.1638587976,1671367879.894,504,174908,94998
562,89560.17102043609,1671367879.894,505,175051,95193
562,89560.17818207457,1671367879.894,505,175051,95193
563,89560.18534371305,1671367879.894,504,175249,95521
563,89560.19250535153,1671367879.894,504,175249,95521
564,89560.19966699001,1671367879.987,505,175634,95934
564,89560.20682862849,1671367879.987,505,175634,95934
565,89560.21399026697,1671367879.987,503,175940,96206
565,89560.22115190545,1671367879.987,503,175940,96206
566,89560.22831354394,1671367879.987,505,176045,96410
566,89560.23547518242,1671367879.987,505,176045,96410
567,89560.2426368209,1671367879.987,503,176475,96912
567,89560.24979845938,1671367879.987,503,176475,96912
568,89560.25696009786,1671367879.987,504,177203,97720
568,89560.26412173634,1671367879.987,504,177203,97720
569,89560.27128337482,1671367879.987,504,177906,98570
569,89560.2784450133,1671367879.987,504,177906,98570
570,89560.29881404588,1671367880.076,505,178978,99425
570,89560.30606851974,1671367880.076,505,178978,99425
571,89560.3133229936,1671367880.076,504,179794,100397
571,89560.32057746747,1671367880.076,504,179794,100397
572,89560.32783194134,1671367880.076,503,180741,101109
572,89560.3350864152,1671367880.076,503,180741,101109
573,89560.34234088907,1671367880.076,503,181197,101420
573,89560.34959536293,1671367880.076,503,181197,101420
574,89560.3568498368,1671367880.076,504,181589,101869
574,89560.36410431066,1671367880.076,504,181589,101869
575,89560.37135878453,1671367880.076,504,181865,102095
575,89560.37861325839,1671367880.076,504,181865,102095
576,89560.38586773226,1671367880.179,504,181962,102257
576,89560.39312220612,1671367880.179,504,181962,102257
577,89560.40037667999,1671367880.179,505,181967,102444
577,89560.40763115385,1671367880.179,505,181967,102444
578,89560.41488562772,1671367880.179,505,181966,102647
578,89560.42214010158,1671367880.179,505,181966,102647
579,89560.42939457545,1671367880.179,506,181990,102735
579,89560.43664904931,1671367880.179,506,181990,102735
580,89560.45750386997,1671367880.179,506,181970,102724
580,89560.4654259466,1671367880.179,506,181970,102724
581,89560.47334802324,1671367880.179,506,181876,102687
581,89560.48127009987,1671367880.179,506,181876,102687
582,89560.48919217651,1671367880.271,505,181744,102580
582,89560.49711425314,1671367880.271,505,181744,102580
583,89560.50503632978,1671367880.271,507,181768,102462
583,89560.51295840641,1671367880.271,507,181768,102462
584,89560.52088048305,1671367880.271,505,181694,102380
584,89560.52880255968,1671367880.271,505,181694,102380
585,89560.53672463632,1671367880.271,505,181521,102313
585,89560.54464671295,1671367880.271,505,181521,102313
586,89560.55256878959,1671367880.271,505,181539,102241
586,89560.56049086622,1671367880.271,505,181539,102241
587,89560.56841294286,1671367880.271,506,181519,102238
587,89560.57633501949,1671367880.271,506,181519,102238
588,89560.58425709612,1671367880.368,506,181661,102316
588,89560.59217917276,1671367880.368,506,181661,102316
589,89560.6001012494,1671367880.368,506,181693,102380
589,89560.60802332603,1671367880.368,506,181693,102380
590,89560.61573741978,1671367880.368,506,181696,102324
590,89560.62319100108,1671367880.368,506,181696,102324
591,89560.63064458239,1671367880.368,505,181790,102079
591,89560.63809816369,1671367880.368,505,181790,102079
592,89560.645551745,1671367880.368,507,181635,101720
592,89560.6530053263,1671367880.368,507,181635,101720
593,89560.6604589076,1671367880.368,508,181185,101246
593,89560.6679124889,1671367880.368,508,181185,101246
594,89560.67536607021,1671367880.458,509,180532,100694
594,89560.68281965151,1671367880.458,509,180532,100694
595,89560.69027323282,1671367880.458,509,180116,100173
595,89560.69772681412,1671367880.458,509,180116,100173
596,89560.70518039542,1671367880.458,509,179550,99743
596,89560.71263397673,1671367880.458,509,179550,99743
597,89560.72008755803,1671367880.458,508,179085,99306
597,89560.72754113933,1671367880.458,508,179085,99306
598,89560.73499472064,1671367880.458,510,178329,99144
598,89560.74244830194,1671367880.458,510,178329,99144
599,89560.74990188325,1671367880.458,511,177936,99015
599,89560.75735546455,1671367880.458,511,177936,99015
600,89560.76960614265,1671367880.555,510,177447,98894
600,89560.77664130276,1671367880.555,510,177447,98894
601,89560.78367646286,1671367880.555,511,177073,98681
601,89560.79071162296,1671367880.555,511,177073,98681
602,89560.79774678306,1671367880.555,510,176766,98509
602,89560.80478194317,1671367880.555,510,176766,98509
603,89560.81181710327,1671367880.555,510,176478,98317
603,89560.81885226337,1671367880.555,510,176478,98317
604,89560.82588742347,1671367880.555,511,176068,98172
604,89560.83292258358,1671367880.555,511,176068,98172
605,89560.83995774368,1671367880.555,511,175961,98049
605,89560.84699290378,1671367880.555,511,175961,98049
606,89560.85402806388,1671367880.66,512,175524,97999
606,89560.86106322399,1671367880.66,512,175524,97999
607,89560.86809838409,1671367880.66,512,175136,98055
607,89560.87513354419,1671367880.66,512,175136,98055
608,89560.8821687043,1671367880.66,514,174912,98001
608,89560.8892038644,1671367880.66,514,174912,98001
609,89560.8962390245,1671367880.66,512,174666,97855
609,89560.9032741846,1671367880.66,512,174666,97855
610,89560.93845001566,1671367880.66,514,174467,97760
610,89560.94664241726,1671367880.66,514,174467,97760
611,89560.95483481885,1671367880.66,510,174290,97675
611,89560.96302722045,1671367880.66,510,174290,97675
612,89560.97121962205,1671367880.73,511,174135,97592
612,89560.97941202365,1671367880.73,511,174135,97592
613,89560.98760442525,1671367880.73,512,174129,97567
613,89560.99579682684,1671367880.73,512,174129,97567
614,89561.00398922844,1671367880.73,509,173960,97536
614,89561.01218163004,1671367880.73,509,173960,97536
615,89561.02037403164,1671367880.73,512,173803,97523
615,89561.02856643323,1671367880.73,512,173803,97523
616,89561.03675883483,1671367880.73,514,173706,97539
616,89561.04495123643,1671367880.73,514,173706,97539
617,89561.05314363803,1671367880.73,512,173576,97474
617,89561.06133603962,1671367880.73,512,173576,97474
618,89561.06952844122,1671367880.834,511,173491,97445
618,89561.07772084282,1671367880.834,511,173491,97445
619,89561.08591324442,1671367880.834,511,173282,97451
619,89561.09410564601,1671367880.834,511,173282,97451
620,89561.07669902022,1671367880.834,512,173120,97427
620,89561.08402913611,1671367880.834,512,173120,97427
621,89561.091359252,1671367880.834,512,173088,97396
621,89561.09868936788,1671367880.834,512,173088,97396
622,89561.10601948376,1671367880.834,511,172812,97344
622,89561.11334959965,1671367880.834,511,172812,97344
623,89561.12067971553,1671367880.834,514,172761,97340
623,89561.12800983142,1671367880.834,514,172761,97340
624,89561.1353399473,1671367880.946,514,172533,97266
624,89561.14267006319,1671367880.946,514,172533,97266
625,89561.15000017907,1671367880.946,512,172356,97234
625,89561.15733029495,1671367880.946,512,172356,97234
626,89561.16466041084,1671367880.946,511,172144,97185
626,89561.17199052672,1671367880.946,511,172144,97185
627,89561.17932064261,1671367880.946,512,171908,97168
627,89561.1866507585,1671367880.946,512,171908,97168
628,89561.19398087438,1671367880.946,514,171671,97174
628,89561.20131099026,1671367880.946,514,171671,97174
629,89561.20864110615,1671367880.946,511,171396,97142
629,89561.21597122203,1671367880.946,511,171396,97142
630,89561.26002768194,1671367881.02,514,171252,97115
630,89561.26876218042,1671367881.02,514,171252,97115
631,89561.2774966789,1671367881.02,515,170952,97116
631,89561.28623117738,1671367881.02,515,170952,97116
632,89561.29496567586,1671367881.02,511,170809,97117
632,89561.30370017434,1671367881.02,511,170809,97117
633,89561.31243467281,1671367881.02,514,170431,97049
633,89561.3211691713,1671367881.02,514,170431,97049
634,89561.32990366977,1671367881.02,514,170315,97003
634,89561.33863816825,1671367881.02,514,170315,97003
635,89561.34737266673,1671367881.02,515,170148,96958
635,89561.35610716521,1671367881.02,515,170148,96958
636,89561.36484166369,1671367881.117,514,169919,96922
636,89561.37357616216,1671367881.117,514,169919,96922
637,89561.38231066064,1671367881.117,515,169809,96914
637,89561.39104515912,1671367881.117,515,169809,96914
638,89561.3997796576,1671367881.117,515,169654,96875
638,89561.40851415608,1671367881.117,515,169654,96875
639,89561.41724865456,1671367881.117,514,169466,96837
639,89561.42598315304,1671367881.117,514,169466,96837
640,89561.3968520628,1671367881.117,515,169239,96810
640,89561.40430469913,1671367881.117,515,169239,96810
641,89561.41175733546,1671367881.117,516,169190,96821
641,89561.41920997179,1671367881.117,516,169190,96821
642,89561.42666260812,1671367881.228,515,169074,96822
642,89561.43411524445,1671367881.228,515,169074,96822
643,89561.44156788079,1671367881.228,516,168882,96826
643,89561.44902051712,1671367881.228,516,168882,96826
644,89561.45647315345,1671367881.228,517,168501,96766
644,89561.46392578978,1671367881.228,517,168501,96766
645,89561.47137842611,1671367881.228,515,168368,96747
645,89561.47883106244,1671367881.228,515,168368,96747
646,89561.48628369877,1671367881.228,514,168363,96680
646,89561.4937363351,1671367881.228,514,168363,96680
647,89561.50118897144,1671367881.228,515,168250,96646
647,89561.50864160777,1671367881.228,515,168250,96646
648,89561.5160942441,1671367881.302,514,168098,96585
648,89561.52354688043,1671367881.302,514,168098,96585
649,89561.53099951676,1671367881.302,514,168037,96554
649,89561.5384521531,1671367881.302,514,168037,96554
650,89561.56445985903,1671367881.302,515,167837,96489
650,89561.57111790171,1671367881.302,515,167837,96489
651,89561.57777594439,1671367881.302,514,167813,96457
651,89561.58443398707,1671367881.302,514,167813,96457
652,89561.59109202975,1671367881.302,514,167697,96452
652,89561.59775007243,1671367881.302,514,167697,96452
653,89561.6044081151,1671367881.302,514,167578,96426
653,89561.61106615778,1671367881.302,514,167578,96426
654,89561.61772420046,1671367881.406,516,167496,96410
654,89561.62438224314,1671367881.406,516,167496,96410
655,89561.63104028582,1671367881.406,516,167475,96396
655,89561.6376983285,1671367881.406,516,167475,96396
656,89561.64435637118,1671367881.406,516,167418,96387
656,89561.65101441386,1671367881.406,516,167418,96387
657,89561.65767245654,1671367881.406,517,167331,96327
657,89561.66433049922,1671367881.406,517,167331,96327
658,89561.6709885419,1671367881.406,516,167242,96320
658,89561.67764658458,1671367881.406,516,167242,96320
659,89561.68430462726,1671367881.406,516,167162,96301
659,89561.69096266993,1671367881.406,516,167162,96301
660,89561.71901757433,1671367881.498,516,167135,96299
660,89561.72709127101,1671367881.498,516,167135,96299
661,89561.73516496769,1671367881.498,515,167079,96276
661,89561.74323866436,1671367881.498,515,167079,96276
662,89561.75131236104,1671367881.498,516,167082,96289
662,89561.75938605772,1671367881.498,516,167082,96289
663,89561.7674597544,1671367881.498,516,166927,96272
663,89561.77553345107,1671367881.498,516,166927,96272
664,89561.78360714775,1671367881.498,515,166949,96269
664,89561.79168084443,1671367881.498,515,166949,96269
665,89561.7997545411,1671367881.498,516,166805,96292
665,89561.80782823778,1671367881.498,516,166805,96292
666,89561.81590193446,1671367881.579,516,166735,96276
666,89561.82397563114,1671367881.579,516,166735,96276
667,89561.83204932782,1671367881.579,515,166698,96257
667,89561.84012302449,1671367881.579,515,166698,96257
668,89561.84819672117,1671367881.579,517,166653,96266
668,89561.85627041785,1671367881.579,517,166653,96266
669,89561.86434411453,1671367881.579,514,166567,96193
669,89561.8724178112,1671367881.579,514,166567,96193
670,89561.86292361391,1671367881.579,516,166523,96211
670,89561.86927704085,1671367881.579,516,166523,96211
671,89561.8756304678,1671367881.579,515,166402,96226
671,89561.88198389474,1671367881.579,515,166402,96226
672,89561.88833732168,1671367881.675,516,166436,96188
672,89561.89469074862,1671367881.675,516,166436,96188
673,89561.90104417557,1671367881.675,517,166380,96191
673,89561.90739760251,1671367881.675,517,166380,96191
674,89561.91375102945,1671367881.675,516,166338,96199
674,89561.9201044564,1671367881.675,516,166338,96199
675,89561.92645788334,1671367881.675,517,166378,96182
675,89561.93281131028,1671367881.675,517,166378,96182
676,89561.93916473722,1671367881.675,518,166260,96191
676,89561.94551816417,1671367881.675,518,166260,96191
677,89561.95187159111,1671367881.675,516,166152,96217
677,89561.95822501805,1671367881.675,516,166152,96217
678,89561.964578445,1671367881.841,516,166064,96211
678,89561.97093187194,1671367881.841,516,166064,96211
679,89561.97728529888,1671367881.841,517,165992,96207
679,89561.98363872583,1671367881.841,517,165992,96207
680,89562.04674853942,1671367881.841,516,165929,96127
680,89562.05812737888,1671367881.841,516,165929,96127
681,89562.06950621835,1671367881.841,518,165835,96051
681,89562.08088505782,1671367881.841,518,165835,96051
682,89562.09226389728,1671367881.841,518,165753,96004
682,89562.10364273675,1671367881.841,518,165753,96004
683,89562.11502157622,1671367881.841,518,165748,95933
683,89562.12640041568,1671367881.841,518,165748,95933
684,89562.13777925515,1671367881.869,517,165713,95920
684,89562.14915809462,1671367881.869,517,165713,95920
685,89562.16053693408,1671367881.869,516,165596,95932
685,89562.17191577355,1671367881.869,516,165596,95932
686,89562.18329461302,1671367881.869,517,165568,95931
686,89562.19467345248,1671367881.869,517,165568,95931
687,89562.20605229195,1671367881.869,515,165492,95971
687,89562.21743113142,1671367881.869,515,165492,95971
688,89562.22880997088,1671367881.869,516,165520,96011
688,89562.24018881035,1671367881.869,516,165520,96011
689,89562.25156764982,1671367881.869,516,165485,96031
689,89562.26294648928,1671367881.869,516,165485,96031
690,89562.17514562352,1671367881.946,518,165557,96044
690,89562.17744719802,1671367881.946,518,165557,96044
691,89562.17974877251,1671367881.946,516,165425,96051
691,89562.18205034701,1671367881.946,516,165425,96051
692,89562.1843519215,1671367881.946,515,165400,96068
692,89562.186653496,1671367881.946,515,165400,96068
693,89562.1889550705,1671367881.946,515,165368,96059
693,89562.19125664499,1671367881.946,515,165368,96059
694,89562.19355821949,1671367881.946,515,165281,96075
694,89562.19585979398,1671367881.946,515,165281,96075
695,89562.19816136848,1671367881.946,515,165209,96088
695,89562.20046294297,1671367881.946,515,165209,96088
696,89562.20276451747,1671367882.056,516,165269,96101
696,89562.20506609196,1671367882.056,516,165269,96101
697,89562.20736766646,1671367882.056,516,165204,96107
697,89562.20966924095,1671367882.056,516,165204,96107
698,89562.21197081545,1671367882.056,517,165241,96128
698,89562.21427238995,1671367882.056,517,165241,96128
699,89562.21657396444,1671367882.056,517,165254,96116
699,89562.21887553894,1671367882.056,517,165254,96116
700,89562.3327456451,1671367882.056,518,165132,96127
700,89562.34113172092,1671367882.056,518,165132,96127
701,89562.34951779676,1671367882.056,517,165117,96152
701,89562.35790387259,1671367882.056,517,165117,96152
702,89562.36628994842,1671367882.149,517,165157,96130
702,89562.37467602425,1671367882.149,517,165157,96130
703,89562.38306210008,1671367882.149,517,165123,96116
703,89562.39144817591,1671367882.149,517,165123,96116
704,89562.39983425174,1671367882.149,517,165140,96138
704,89562.40822032758,1671367882.149,517,165140,96138
705,89562.4166064034,1671367882.149,517,165117,96124
705,89562.42499247924,1671367882.149,517,165117,96124
706,89562.43337855507,1671367882.149,517,165138,96102
706,89562.4417646309,1671367882.149,517,165138,96102
707,89562.45015070673,1671367882.149,519,165088,96140
707,89562.45853678256,1671367882.149,519,165088,96140
708,89562.4669228584,1671367882.25,518,165063,96132
708,89562.47530893423,1671367882.25,518,165063,96132
709,89562.48369501006,1671367882.25,517,165075,96152
709,89562.49208108589,1671367882.25,517,165075,96152
710,89562.49535207586,1671367882.25,516,165058,96137
710,89562.50304734622,1671367882.25,516,165058,96137
711,89562.51074261659,1671367882.25,516,165083,96150
711,89562.51843788696,1671367882.25,516,165083,96150
712,89562.52613315733,1671367882.25,517,165092,96150
712,89562.5338284277,1671367882.25,517,165092,96150
713,89562.54152369806,1671367882.25,519,165045,96162
713,89562.54921896843,1671367882.25,519,165045,96162
714,89562.5569142388,1671367882.327,519,165028,96176
714,89562.56460950917,1671367882.327,519,165028,96176
715,89562.57230477953,1671367882.327,518,165122,96176
715,89562.5800000499,1671367882.327,518,165122,96176
716,89562.58769532027,1671367882.327,517,164995,96184
716,89562.59539059064,1671367882.327,517,164995,96184
717,89562.603085861,1671367882.327,516,165009,96192
717,89562.61078113137,1671367882.327,516,165009,96192
718,89562.61847640174,1671367882.327,516,165057,96187
718,89562.6261716721,1671367882.327,516,165057,96187
719,89562.63386694247,1671367882.327,516,165062,96198
719,89562.64156221284,1671367882.327,516,165062,96198
720,89562.63762813307,1671367882.428,517,165144,96221
720,89562.64368290958,1671367882.428,517,165144,96221
721,89562.64973768608,1671367882.428,517,165091,96231
721,89562.65579246258,1671367882.428,517,165091,96231
722,89562.66184723908,1671367882.428,518,165099,96263
722,89562.66790201559,1671367882.428,518,165099,96263
723,89562.67395679209,1671367882.428,518,165125,96263
723,89562.68001156859,1671367882.428,518,165125,96263
724,89562.6860663451,1671367882.428,517,165136,96272
724,89562.6921211216,1671367882.428,517,165136,96272
725,89562.6981758981,1671367882.428,517,165161,96283
725,89562.7042306746,1671367882.428,517,165161,96283
726,89562.7102854511,1671367882.524,517,165214,96276
726,89562.7163402276,1671367882.524,517,165214,96276
727,89562.72239500411,1671367882.524,516,165054,96255
727,89562.72844978061,1671367882.524,516,165054,96255
728,89562.73450455711,1671367882.524,517,165011,96214
728,89562.74055933362,1671367882.524,517,165011,96214
729,89562.74661411012,1671367882.524,517,165039,96225
729,89562.75266888662,1671367882.524,517,165039,96225
730,89562.80444513731,1671367882.524,518,165078,96182
730,89562.81196296288,1671367882.524,518,165078,96182
731,89562.81948078844,1671367882.524,519,164955,96183
731,89562.82699861401,1671367882.524,519,164955,96183
732,89562.83451643957,1671367882.614,517,164915,96132
732,89562.84203426514,1671367882.614,517,164915,96132
733,89562.8495520907,1671367882.614,516,164867,96170
733,89562.85706991627,1671367882.614,516,164867,96170
734,89562.86458774183,1671367882.614,516,164820,96149
734,89562.8721055674,1671367882.614,516,164820,96149
735,89562.87962339296,1671367882.614,517,164834,96122
735,89562.88714121853,1671367882.614,517,164834,96122
736,89562.89465904409,1671367882.614,517,164803,96151
736,89562.90217686965,1671367882.614,517,164803,96151
737,89562.90969469522,1671367882.614,518,164773,96139
737,89562.91721252078,1671367882.614,518,164773,96139
738,89562.92473034635,1671367882.702,517,164835,96116
738,89562.93224817191,1671367882.702,517,164835,96116
739,89562.93976599748,1671367882.702,519,164693,96115
739,89562.94728382304,1671367882.702,519,164693,96115
740,89562.95504146726,1671367882.702,518,164705,96102
740,89562.96193044342,1671367882.702,518,164705,96102
741,89562.96881941958,1671367882.702,518,164653,96112
741,89562.97570839574,1671367882.702,518,164653,96112
742,89562.9825973719,1671367882.702,517,164665,96079
742,89562.98948634806,1671367882.702,517,164665,96079
743,89562.99637532422,1671367882.702,519,164722,96101
743,89563.00326430038,1671367882.702,519,164722,96101
744,89563.01015327654,1671367882.805,518,164586,96087
744,89563.0170422527,1671367882.805,518,164586,96087
745,89563.02393122886,1671367882.805,516,164671,96073
745,89563.03082020502,1671367882.805,516,164671,96073
746,89563.03770918118,1671367882.805,518,164625,96103
746,89563.04459815734,1671367882.805,518,164625,96103
747,89563.0514871335,1671367882.805,518,164701,96088
747,89563.05837610966,1671367882.805,518,164701,96088
748,89563.06526508582,1671367882.805,517,164609,96071
748,89563.07215406199,1671367882.805,517,164609,96071
749,89563.07904303815,1671367882.805,518,164595,96087
749,89563.0859320143,1671367882.805,518,164595,96087
750,89563.11793964148,1671367882.899,517,164599,96089
750,89563.12599407777,1671367882.899,517,164599,96089
751,89563.13404851405,1671367882.899,517,164599,96102
751,89563.14210295034,1671367882.899,517,164599,96102
752,89563.15015738663,1671367882.899,516,164564,96102
752,89563.15821182291,1671367882.899,516,164564,96102
753,89563.1662662592,1671367882.899,517,164624,96111
753,89563.17432069549,1671367882.899,517,164624,96111
754,89563.18237513177,1671367882.899,518,164632,96105
754,89563.19042956806,1671367882.899,518,164632,96105
755,89563.19848400434,1671367882.899,519,164608,96123
755,89563.20653844063,1671367882.899,519,164608,96123
756,89563.21459287692,1671367883.005,519,164541,96127
756,89563.2226473132,1671367883.005,519,164541,96127
757,89563.23070174949,1671367883.005,519,164574,96142
757,89563.23875618578,1671367883.005,519,164574,96142
758,89563.24681062206,1671367883.005,518,164646,96137
758,89563.25486505835,1671367883.005,518,164646,96137
759,89563.26291949463,1671367883.005,518,164627,96133
759,89563.27097393092,1671367883.005,518,164627,96133
760,89563.28317911566,1671367883.005,517,164529,96129
760,89563.29144516686,1671367883.005,517,164529,96129
761,89563.29971121806,1671367883.005,517,164631,96139
761,89563.30797726926,1671367883.005,517,164631,96139
762,89563.31624332046,1671367883.081,518,164532,96141
762,89563.32450937165,1671367883.081,518,164532,96141
763,89563.33277542285,1671367883.081,519,164626,96149
763,89563.34104147405,1671367883.081,519,164626,96149
764,89563.34930752525,1671367883.081,519,164552,96158
764,89563.35757357645,1671367883.081,519,164552,96158
765,89563.36583962764,1671367883.081,519,164633,96155
765,89563.37410567884,1671367883.081,519,164633,96155
766,89563.38237173004,1671367883.081,518,164661,96158
766,89563.39063778124,1671367883.081,518,164661,96158
767,89563.39890383244,1671367883.081,517,164582,96171
767,89563.40716988363,1671367883.081,517,164582,96171
768,89563.41543593483,1671367883.205,517,164630,96157
768,89563.42370198603,1671367883.205,517,164630,96157
769,89563.43196803723,1671367883.205,516,164642,96198
769,89563.44023408843,1671367883.205,516,164642,96198
770,89563.4353558933,1671367883.205,518,164595,96191
770,89563.44395053785,1671367883.205,518,164595,96191
771,89563.4525451824,1671367883.205,520,164631,96171
771,89563.46113982695,1671367883.205,520,164631,96171
772,89563.4697344715,1671367883.205,519,164641,96187
772,89563.47832911604,1671367883.205,519,164641,96187
773,89563.48692376059,1671367883.205,520,164674,96201
773,89563.49551840514,1671367883.205,520,164674,96201
774,89563.50411304968,1671367883.264,517,164639,96177
774,89563.51270769423,1671367883.264,517,164639,96177
775,89563.52130233878,1671367883.264,519,164683,96194
775,89563.52989698332,1671367883.264,519,164683,96194
776,89563.53849162787,1671367883.264,518,164630,96190
776,89563.54708627242,1671367883.264,518,164630,96190
777,89563.55568091696,1671367883.264,518,164573,96172
777,89563.56427556151,1671367883.264,518,164573,96172
778,89563.57287020606,1671367883.264,518,164717,96139
778,89563.5814648506,1671367883.264,518,164717,96139
779,89563.59005949515,1671367883.264,518,164609,96125
779,89563.5986541397,1671367883.264,518,164609,96125
780,89563.57284487672,1671367883.357,520,164616,96083
780,89563.5774967687,1671367883.357,520,164616,96083
781,89563.58214866069,1671367883.357,519,164528,96055
781,89563.58680055267,1671367883.357,519,164528,96055
782,89563.59145244466,1671367883.357,517,164555,96069
782,89563.59610433664,1671367883.357,517,164555,96069
783,89563.60075622862,1671367883.357,517,164402,96055
783,89563.60540812061,1671367883.357,517,164402,96055
784,89563.6100600126,1671367883.357,517,164450,96037
784,89563.61471190458,1671367883.357,517,164450,96037
785,89563.61936379656,1671367883.357,519,164434,96004
785,89563.62401568855,1671367883.357,519,164434,96004
786,89563.62866758053,1671367883.449,519,164463,96022
786,89563.63331947252,1671367883.449,519,164463,96022
787,89563.6379713645,1671367883.449,519,164387,95992
787,89563.64262325648,1671367883.449,519,164387,95992
788,89563.64727514847,1671367883.449,519,164255,95990
788,89563.65192704045,1671367883.449,519,164255,95990
789,89563.65657893244,1671367883.449,518,164324,95978
789,89563.66123082442,1671367883.449,518,164324,95978
790,89563.73023514019,1671367883.449,519,164270,95993
790,89563.73737259443,1671367883.449,519,164270,95993
791,89563.74451004868,1671367883.449,518,164312,95941
791,89563.75164750293,1671367883.449,518,164312,95941
792,89563.75878495717,1671367883.547,518,164191,95965
792,89563.76592241142,1671367883.547,518,164191,95965
793,89563.77305986566,1671367883.547,517,164309,95948
793,89563.78019731991,1671367883.547,517,164309,95948
794,89563.78733477416,1671367883.547,518,164282,95955
794,89563.7944722284,1671367883.547,518,164282,95955
795,89563.80160968265,1671367883.547,519,164314,95912
795,89563.80874713689,1671367883.547,519,164314,95912
796,89563.81588459114,1671367883.547,519,164253,95916
796,89563.82302204538,1671367883.547,519,164253,95916
797,89563.83015949963,1671367883.547,519,164278,95905
797,89563.83729695388,1671367883.547,519,164278,95905
798,89563.84443440812,1671367883.643,518,164205,95917
798,89563.85157186237,1671367883.643,518,164205,95917
799,89563.85870931661,1671367883.643,519,164281,95928
799,89563.86584677086,1671367883.643,519,164281,95928
800,89563.89158128372,1671367883.643,518,164287,95919
800,89563.89916723905,1671367883.643,518,164287,95919
801,89563.90675319439,1671367883.643,518,164216,95886
801,89563.91433914972,1671367883.643,518,164216,95886
802,89563.92192510505,1671367883.643,519,164179,95898
802,89563.92951106039,1671367883.643,519,164179,95898
803,89563.93709701572,1671367883.643,519,164265,95922
803,89563.94468297105,1671367883.643,519,164265,95922
804,89563.95226892638,1671367883.808,520,164205,95891
804,89563.95985488172,1671367883.808,520,164205,95891
805,89563.96744083705,1671367883.808,519,164262,95886
805,89563.97502679238,1671367883.808,519,164262,95886
806,89563.98261274771,1671367883.808,518,164219,95896
806,89563.99019870305,1671367883.808,518,164219,95896
807,89563.99778465838,1671367883.808,518,164168,95890
807,89564.00537061371,1671367883.808,518,164168,95890
808,89564.01295656904,1671367883.808,519,164254,95891
808,89564.02054252438,1671367883.808,519,164254,95891
809,89564.02812847971,1671367883.808,518,164272,95897
809,89564.03571443504,1671367883.808,518,164272,95897
810,89564.12777688447,1671367883.833,519,164343,95888
810,89564.1406101104,1671367883.833,519,164343,95888
811,89564.15344333631,1671367883.833,518,164224,95871
811,89564.16627656223,1671367883.833,518,164224,95871
812,89564.17910978815,1671367883.833,518,164198,95862
812,89564.19194301407,1671367883.833,518,164198,95862
813,89564.20477623999,1671367883.833,518,164201,95848
813,89564.21760946591,1671367883.833,518,164201,95848
814,89564.23044269183,1671367883.833,518,164256,95840
814,89564.24327591775,1671367883.833,518,164256,95840
815,89564.25610914367,1671367883.833,517,164314,95814
815,89564.26894236958,1671367883.833,517,164314,95814
816,89564.2817755955,1671367883.924,516,164232,95810
816,89564.29460882142,1671367883.924,516,164232,95810
817,89564.30744204734,1671367883.924,518,164187,95800
817,89564.32027527326,1671367883.924,518,164187,95800
818,89564.33310849918,1671367883.924,518,164234,95761
818,89564.3459417251,1671367883.924,518,164234,95761
819,89564.35877495102,1671367883.924,518,164116,95707
819,89564.37160817694,1671367883.924,518,164116,95707
820,89564.20499168719,1671367883.924,519,164139,95688
820,89564.21178631883,1671367883.924,519,164139,95688
821,89564.21858095047,1671367883.924,518,164153,95678
821,89564.22537558211,1671367883.924,518,164153,95678
822,89564.23217021376,1671367884.025,517,164175,95655
822,89564.2389648454,1671367884.025,517,164175,95655
823,89564.24575947704,1671367884.025,517,164081,95645
823,89564.25255410868,1671367884.025,517,164081,95645
824,89564.25934874032,1671367884.025,518,164091,95644
824,89564.26614337196,1671367884.025,518,164091,95644
825,89564.2729380036,1671367884.025,517,164170,95646
825,89564.27973263524,1671367884.025,517,164170,95646
826,89564.28652726689,1671367884.025,520,164172,95604
826,89564.29332189853,1671367884.025,520,164172,95604
827,89564.30011653017,1671367884.025,520,164145,95608
827,89564.30691116181,1671367884.025,520,164145,95608
828,89564.31370579345,1671367884.125,518,164105,95578
828,89564.32050042509,1671367884.125,518,164105,95578
829,89564.32729505673,1671367884.125,519,164216,95623
829,89564.33408968837,1671367884.125,519,164216,95623
830,89564.37131147135,1671367884.125,519,164215,95609
830,89564.37911169107,1671367884.125,519,164215,95609
831,89564.3869119108,1671367884.125,517,164168,95566
831,89564.39471213052,1671367884.125,517,164168,95566
832,89564.40251235025,1671367884.125,518,164103,95546
832,89564.41031256998,1671367884.125,518,164103,95546
833,89564.4181127897,1671367884.125,517,164138,95546
833,89564.42591300943,1671367884.125,517,164138,95546
834,89564.43371322915,1671367884.199,518,164118,95523
834,89564.44151344888,1671367884.199,518,164118,95523
835,89564.4493136686,1671367884.199,518,164012,95521
835,89564.45711388833,1671367884.199,518,164012,95521
836,89564.46491410806,1671367884.199,518,164085,95471
836,89564.47271432779,1671367884.199,518,164085,95471
837,89564.48051454751,1671367884.199,520,163963,95511
837,89564.48831476724,1671367884.199,520,163963,95511
838,89564.49611498696,1671367884.199,519,164118,95504
838,89564.50391520669,1671367884.199,519,164118,95504
839,89564.51171542642,1671367884.199,518,163985,95453
839,89564.51951564614,1671367884.199,518,163985,95453
840,89564.50917059804,1671367884.297,517,163976,95441
840,89564.5149942365,1671367884.297,517,163976,95441
841,89564.52081787495,1671367884.297,518,164028,95466
841,89564.5266415134,1671367884.297,518,164028,95466
842,89564.53246515185,1671367884.297,518,163973,95452
842,89564.5382887903,1671367884.297,518,163973,95452
843,89564.54411242875,1671367884.297,518,163972,95460
843,89564.5499360672,1671367884.297,518,163972,95460
844,89564.55575970565,1671367884.297,521,163948,95469
844,89564.5615833441,1671367884.297,521,163948,95469
845,89564.56740698255,1671367884.297,519,163912,95470
845,89564.573230621,1671367884.297,519,163912,95470
846,89564.57905425945,1671367884.408,519,163923,95497
846,89564.5848778979,1671367884.408,519,163923,95497
847,89564.59070153635,1671367884.408,518,163956,95440
847,89564.5965251748,1671367884.408,518,163956,95440
848,89564.60234881325,1671367884.408,519,163937,95481
848,89564.6081724517,1671367884.408,519,163937,95481
849,89564.61399609015,1671367884.408,518,163902,95491
849,89564.6198197286,1671367884.408,518,163902,95491
850,89564.68505531938,1671367884.408,518,163964,95470
850,89564.6936705687,1671367884.408,518,163964,95470
851,89564.70228581801,1671367884.408,519,163902,95459
851,89564.71090106733,1671367884.408,519,163902,95459
852,89564.71951631665,1671367884.491,518,163916,95461
852,89564.72813156596,1671367884.491,518,163916,95461
853,89564.73674681528,1671367884.491,519,163901,95457
853,89564.7453620646,1671367884.491,519,163901,95457
854,89564.75397731391,1671367884.491,519,163897,95450
854,89564.76259256323,1671367884.491,519,163897,95450
855,89564.77120781255,1671367884.491,519,163915,95437
855,89564.77982306186,1671367884.491,519,163915,95437
856,89564.78843831118,1671367884.491,518,163807,95407
856,89564.7970535605,1671367884.491,518,163807,95407
857,89564.80566880981,1671367884.491,516,163831,95362
857,89564.81428405913,1671367884.491,516,163831,95362
858,89564.82289930845,1671367884.578,519,163829,95359
858,89564.83151455777,1671367884.578,519,163829,95359
859,89564.84012980708,1671367884.578,518,163834,95317
859,89564.8487450564,1671367884.578,518,163834,95317
860,89564.83108405565,1671367884.578,519,163763,95282
860,89564.83779998291,1671367884.578,519,163763,95282
861,89564.84451591017,1671367884.578,519,163772,95267
861,89564.85123183743,1671367884.578,519,163772,95267
862,89564.85794776469,1671367884.578,517,163720,95234
862,89564.86466369194,1671367884.578,517,163720,95234
863,89564.8713796192,1671367884.578,517,163701,95243
863,89564.87809554646,1671367884.578,517,163701,95243
864,89564.88481147372,1671367884.671,516,163693,95169
864,89564.89152740098,1671367884.671,516,163693,95169
865,89564.89824332824,1671367884.671,518,163559,95047
865,89564.9049592555,1671367884.671,518,163559,95047
866,89564.91167518275,1671367884.671,516,163362,94979
866,89564.91839111001,1671367884.671,516,163362,94979
867,89564.92510703727,1671367884.671,516,163354,94972
867,89564.93182296453,1671367884.671,516,163354,94972
868,89564.93853889179,1671367884.671,518,163286,94969
868,89564.94525481905,1671367884.671,518,163286,94969
869,89564.9519707463,1671367884.671,519,163218,94942
869,89564.95868667356,1671367884.671,519,163218,94942
870,89564.98342984509,1671367884.766,519,163243,94924
870,89564.99071197156,1671367884.766,519,163243,94924
871,89564.99799409804,1671367884.766,519,163223,94927
871,89565.00527622452,1671367884.766,519,163223,94927
872,89565.012558351,1671367884.766,518,163167,94955
872,89565.01984047747,1671367884.766,518,163167,94955
873,89565.02712260395,1671367884.766,516,163213,94937
873,89565.03440473042,1671367884.766,516,163213,94937
874,89565.0416868569,1671367884.766,516,163134,94941
874,89565.04896898338,1671367884.766,516,163134,94941
875,89565.05625110985,1671367884.766,518,163213,94926
875,89565.06353323633,1671367884.766,518,163213,94926
876,89565.07081536281,1671367884.863,518,163247,94913
876,89565.07809748928,1671367884.863,518,163247,94913
877,89565.08537961576,1671367884.863,518,163214,94903
877,89565.09266174224,1671367884.863,518,163214,94903
878,89565.09994386871,1671367884.863,518,163207,94868
878,89565.10722599519,1671367884.863,518,163207,94868
879,89565.11450812167,1671367884.863,519,163291,94888
879,89565.12179024814,1671367884.863,519,163291,94888
880,89565.14347755168,1671367884.863,516,163275,94879
880,89565.15111263486,1671367884.863,516,163275,94879
881,89565.15874771804,1671367884.863,517,163296,94885
881,89565.16638280122,1671367884.863,517,163296,94885
882,89565.1740178844,1671367884.955,516,163362,94898
882,89565.18165296759,1671367884.955,516,163362,94898
883,89565.18928805077,1671367884.955,516,163335,94895
883,89565.19692313395,1671367884.955,516,163335,94895
884,89565.20455821713,1671367884.955,518,163287,94862
884,89565.2121933003,1671367884.955,518,163287,94862
885,89565.21982838349,1671367884.955,517,163271,94871
885,89565.22746346667,1671367884.955,517,163271,94871
886,89565.23509854985,1671367884.955,516,163264,94867
886,89565.24273363303,1671367884.955,516,163264,94867
887,89565.25036871621,1671367884.955,515,163363,94935
887,89565.25800379939,1671367884.955,515,163363,94935
888,89565.26563888257,1671367885.049,515,163262,94976
888,89565.27327396575,1671367885.049,515,163262,94976
889,89565.28090904893,1671367885.049,515,163304,95065
889,89565.28854413211,1671367885.049,515,163304,95065
890,89565.29820119224,1671367885.049,514,163244,95091
890,89565.3054848614,1671367885.049,514,163244,95091
891,89565.31276853055,1671367885.049,515,163329,95103
891,89565.3200521997,1671367885.049,515,163329,95103
892,89565.32733586886,1671367885.049,515,163247,95133
892,89565.33461953801,1671367885.049,515,163247,95133
893,89565.34190320717,1671367885.049,517,163208,95190
893,89565.34918687632,1671367885.049,517,163208,95190
894,89565.35647054548,1671367885.144,515,163319,95191
894,89565.36375421463,1671367885.144,515,163319,95191
895,89565.37103788379,1671367885.144,515,163250,95222
895,89565.37832155294,1671367885.144,515,163250,95222
896,89565.3856052221,1671367885.144,514,163225,95232
896,89565.39288889125,1671367885.144,514,163225,95232
897,89565.4001725604,1671367885.144,511,163156,95255
897,89565.40745622956,1671367885.144,511,163156,95255
898,89565.41473989871,1671367885.144,514,163153,95268
898,89565.42202356787,1671367885.144,514,163153,95268
899,89565.42930723702,1671367885.144,516,163169,95260
899,89565.43659090617,1671367885.144,516,163169,95260
900,89565.4560501626,1671367885.238,515,163289,95271
900,89565.4634655068,1671367885.238,515,163289,95271
901,89565.47088085099,1671367885.238,515,163222,95255
901,89565.47829619519,1671367885.238,515,163222,95255
902,89565.48571153938,1671367885.238,514,163192,95249
902,89565.49312688358,1671367885.238,514,163192,95249
903,89565.50054222778,1671367885.238,512,163203,95245
903,89565.50795757197,1671367885.238,512,163203,95245
904,89565.51537291617,1671367885.238,511,163145,95274
904,89565.52278826036,1671367885.238,511,163145,95274
905,89565.53020360456,1671367885.238,512,163167,95281
905,89565.53761894876,1671367885.238,512,163167,95281
906,89565.54503429295,1671367885.331,511,163208,95282
906,89565.55244963715,1671367885.331,511,163208,95282
907,89565.55986498135,1671367885.331,511,163216,95324
907,89565.56728032554,1671367885.331,511,163216,95324
908,89565.57469566974,1671367885.331,512,163082,95322
908,89565.58211101394,1671367885.331,512,163082,95322
909,89565.58952635813,1671367885.331,514,163249,95314
909,89565.59694170233,1671367885.331,514,163249,95314
910,89565.61220864438,1671367885.331,511,163235,95344
910,89565.61949869162,1671367885.331,511,163235,95344
911,89565.62678873887,1671367885.331,512,163158,95352
911,89565.63407878611,1671367885.331,512,163158,95352
912,89565.64136883336,1671367885.423,510,163225,95385
912,89565.6486588806,1671367885.423,510,163225,95385
913,89565.65594892784,1671367885.423,510,163217,95403
913,89565.66323897509,1671367885.423,510,163217,95403
914,89565.67052902233,1671367885.423,510,163235,95418
914,89565.67781906958,1671367885.423,510,163235,95418
915,89565.68510911682,1671367885.423,511,163230,95437
915,89565.69239916407,1671367885.423,511,163230,95437
916,89565.69968921131,1671367885.423,511,163249,95475
916,89565.70697925855,1671367885.423,511,163249,95475
917,89565.7142693058,1671367885.423,511,163249,95487
917,89565.72155935304,1671367885.423,511,163249,95487
918,89565.72884940029,1671367885.526,511,163211,95506
918,89565.73613944753,1671367885.526,511,163211,95506
919,89565.74342949477,1671367885.526,511,163257,95530
919,89565.75071954202,1671367885.526,511,163257,95530
920,89565.77048014554,1671367885.526,511,163205,95555
920,89565.77827967468,1671367885.526,511,163205,95555
921,89565.78607920381,1671367885.526,509,163302,95582
921,89565.79387873295,1671367885.526,509,163302,95582
922,89565.80167826208,1671367885.526,511,163305,95625
922,89565.80947779122,1671367885.526,511,163305,95625
923,89565.81727732036,1671367885.526,512,163282,95675
923,89565.82507684949,1671367885.526,512,163282,95675
924,89565.83287637863,1671367885.619,511,163223,95784
924,89565.84067590776,1671367885.619,511,163223,95784
925,89565.8484754369,1671367885.619,511,163270,95874
925,89565.85627496603,1671367885.619,511,163270,95874
926,89565.86407449517,1671367885.619,511,163224,96064
926,89565.8718740243,1671367885.619,511,163224,96064
927,89565.87967355344,1671367885.619,511,163270,96136
927,89565.88747308258,1671367885.619,511,163270,96136
928,89565.89527261171,1671367885.619,510,163311,96175
928,89565.90307214085,1671367885.619,510,163311,96175
929,89565.91087166998,1671367885.619,512,163241,96172
929,89565.91867119912,1671367885.619,512,163241,96172
930,89565.93087071484,1671367885.723,511,163162,96209
930,89565.93809249703,1671367885.723,511,163162,96209
931,89565.94531427922,1671367885.723,512,163282,96173
931,89565.9525360614,1671367885.723,512,163282,96173
932,89565.9597578436,1671367885.723,512,163263,96139
932,89565.96697962578,1671367885.723,512,163263,96139
933,89565.97420140797,1671367885.723,512,163217,96120
933,89565.98142319015,1671367885.723,512,163217,96120
934,89565.98864497234,1671367885.723,511,163292,96057
934,89565.99586675453,1671367885.723,511,163292,96057
935,89566.00308853672,1671367885.723,511,163195,95972
935,89566.0103103189,1671367885.723,511,163195,95972
936,89566.01753210109,1671367885.802,509,163127,95855
936,89566.02475388328,1671367885.802,509,163127,95855
937,89566.03197566546,1671367885.802,510,163146,95777
937,89566.03919744765,1671367885.802,510,163146,95777
938,89566.04641922984,1671367885.802,512,163113,95663
938,89566.05364101203,1671367885.802,512,163113,95663
939,89566.06086279421,1671367885.802,511,163191,95586
939,89566.0680845764,1671367885.802,511,163191,95586
940,89566.08682870846,1671367885.802,510,163023,95493
940,89566.09310085292,1671367885.802,510,163023,95493
941,89566.09937299737,1671367885.802,511,162984,95410
941,89566.10564514183,1671367885.802,511,162984,95410
942,89566.11191728628,1671367885.898,511,163103,95360
942,89566.11818943074,1671367885.898,511,163103,95360
943,89566.1244615752,1671367885.898,512,162953,95318
943,89566.13073371965,1671367885.898,512,162953,95318
944,89566.1370058641,1671367885.898,511,162980,95242
944,89566.14327800856,1671367885.898,511,162980,95242
945,89566.14955015302,1671367885.898,512,162918,95167
945,89566.15582229747,1671367885.898,512,162918,95167
946,89566.16209444193,1671367885.898,514,162922,95122
946,89566.16836658638,1671367885.898,514,162922,95122
947,89566.17463873084,1671367885.898,512,162945,95123
947,89566.1809108753,1671367885.898,512,162945,95123
948,89566.18718301975,1671367885.994,514,162954,95107
948,89566.1934551642,1671367885.994,514,162954,95107
949,89566.19972730866,1671367885.994,515,162837,95143
949,89566.20599945312,1671367885.994,515,162837,95143
950,89566.24255190381,1671367885.994,514,162882,95137
950,89566.2500757935,1671367885.994,514,162882,95137
951,89566.2575996832,1671367885.994,515,162831,95181
951,89566.2651235729,1671367885.994,515,162831,95181
952,89566.2726474626,1671367885.994,512,162852,95165
952,89566.2801713523,1671367885.994,512,162852,95165
953,89566.28769524199,1671367885.994,512,162847,95154
953,89566.29521913169,1671367885.994,512,162847,95154
954,89566.30274302138,1671367886.076,512,162886,95168
954,89566.31026691108,1671367886.076,512,162886,95168
955,89566.31779080078,1671367886.076,512,162816,95177
955,89566.32531469048,1671367886.076,512,162816,95177
956,89566.33283858017,1671367886.076,512,162769,95165
956,89566.34036246987,1671367886.076,512,162769,95165
957,89566.34788635957,1671367886.076,514,162801,95154
957,89566.35541024926,1671367886.076,514,162801,95154
958,89566.36293413896,1671367886.076,512,162841,95155
958,89566.37045802866,1671367886.076,512,162841,95155
959,89566.37798191835,1671367886.076,515,162709,95198
959,89566.38550580805,1671367886.076,515,162709,95198
960,89566.38676049492,1671367886.176,514,162844,95164
960,89566.39312537207,1671367886.176,514,162844,95164
961,89566.39949024921,1671367886.176,514,162862,95164
961,89566.40585512636,1671367886.176,514,162862,95164
962,89566.4122200035,1671367886.176,514,162727,95165
962,89566.41858488065,1671367886.176,514,162727,95165
963,89566.4249497578,1671367886.176,512,162826,95159
963,89566.43131463495,1671367886.176,512,162826,95159
964,89566.43767951209,1671367886.176,514,162768,95177
964,89566.44404438924,1671367886.176,514,162768,95177
965,89566.45040926638,1671367886.176,515,162713,95204
965,89566.45677414353,1671367886.176,515,162713,95204
966,89566.46313902068,1671367886.274,514,162747,95258
966,89566.46950389782,1671367886.274,514,162747,95258
967,89566.47586877497,1671367886.274,515,162703,95298
967,89566.48223365212,1671367886.274,515,162703,95298
968,89566.48859852926,1671367886.274,514,162613,95381
968,89566.49496340641,1671367886.274,514,162613,95381
969,89566.50132828356,1671367886.274,514,162690,95449
969,89566.5076931607,1671367886.274,514,162690,95449
970,89566.5539110331,1671367886.274,512,162657,95498
970,89566.5615838528,1671367886.274,512,162657,95498
971,89566.5692566725,1671367886.274,514,162513,95528
971,89566.5769294922,1671367886.274,514,162513,95528
972,89566.58460231191,1671367886.361,515,162542,95597
972,89566.59227513161,1671367886.361,515,162542,95597
973,89566.59994795131,1671367886.361,516,162490,95629
973,89566.60762077101,1671367886.361,516,162490,95629
974,89566.61529359072,1671367886.361,514,162507,95644
974,89566.62296641042,1671367886.361,514,162507,95644
975,89566.63063923012,1671367886.361,516,162501,95649
975,89566.63831204982,1671367886.361,516,162501,95649
976,89566.64598486952,1671367886.361,514,162511,95614
976,89566.65365768922,1671367886.361,514,162511,95614
977,89566.66133050893,1671367886.361,514,162473,95617
977,89566.66900332863,1671367886.361,514,162473,95617
978,89566.67667614833,1671367886.448,514,162518,95591
978,89566.68434896803,1671367886.448,514,162518,95591
979,89566.69202178773,1671367886.448,515,162508,95576
979,89566.69969460744,1671367886.448,515,162508,95576
980,89566.70170649173,1671367886.448,514,162493,95518
980,89566.70847263453,1671367886.448,514,162493,95518
981,89566.71523877734,1671367886.448,515,162398,95428
981,89566.72200492014,1671367886.448,515,162398,95428
982,89566.72877106295,1671367886.448,516,162464,95312
982,89566.73553720575,1671367886.448,516,162464,95312
983,89566.74230334855,1671367886.448,517,162419,95216
983,89566.74906949136,1671367886.448,517,162419,95216
984,89566.75583563416,1671367886.552,514,162351,95120
984,89566.76260177697,1671367886.552,514,162351,95120
985,89566.76936791977,1671367886.552,515,162259,95018
985,89566.77613406257,1671367886.552,515,162259,95018
986,89566.78290020538,1671367886.552,512,162202,94840
986,89566.78966634818,1671367886.552,512,162202,94840
987,89566.79643249098,1671367886.552,514,162222,94691
987,89566.80319863379,1671367886.552,514,162222,94691
988,89566.80996477659,1671367886.552,516,162102,94604
988,89566.8167309194,1671367886.552,516,162102,94604
989,89566.8234970622,1671367886.552,515,162087,94541
989,89566.830263205,1671367886.552,515,162087,94541
990,89566.8654146132,1671367886.676,515,161973,94542
990,89566.87356249188,1671367886.676,515,161973,94542
991,89566.88171037055,1671367886.676,514,161890,94469
991,89566.88985824923,1671367886.676,514,161890,94469
992,89566.8980061279,1671367886.676,512,161882,94422
992,89566.90615400657,1671367886.676,512,161882,94422
993,89566.91430188525,1671367886.676,515,161721,94398
993,89566.92244976392,1671367886.676,515,161721,94398
994,89566.9305976426,1671367886.676,512,161716,94375
994,89566.93874552127,1671367886.676,512,161716,94375
995,89566.94689339995,1671367886.676,512,161653,94368
995,89566.95504127862,1671367886.676,512,161653,94368
996,89566.9631891573,1671367886.744,514,161674,94364
996,89566.97133703597,1671367886.744,514,161674,94364
997,89566.97948491464,1671367886.744,514,161619,94350
997,89566.98763279332,1671367886.744,514,161619,94350
998,89566.99578067199,1671367886.744,515,161657,94344
998,89567.00392855066,1671367886.744,515,161657,94344
999,89567.01207642934,1671367886.744,514,161590,94317
999,89567.02022430801,1671367886.744,514,161590,94317
1000,89567.03008332483,1671367886.744,514,161680,94310
1000,89567.03599999071,1671367886.744,514,161680,94310
1001,89567.04191665658,1671367886.744,512,161659,94334
1001,89567.04783332246,1671367886.744,512,161659,94334
1002,89567.05374998834,1671367886.831,514,161594,94366
1002,89567.05966665421,1671367886.831,514,161594,94366
1003,89567.06558332009,1671367886.831,512,161648,94388
1003,89567.07149998596,1671367886.831,512,161648,94388
1004,89567.07741665184,1671367886.831,515,161603,94409
1004,89567.08333331771,1671367886.831,515,161603,94409
1005,89567.08924998359,1671367886.831,514,161614,94466
1005,89567.09516664947,1671367886.831,514,161614,94466
1006,89567.10108331534,1671367886.831,514,161637,94468
1006,89567.10699998122,1671367886.831,514,161637,94468
1007,89567.1129166471,1671367886.831,515,161551,94480
1007,89567.11883331297,1671367886.831,515,161551,94480
1008,89567.12474997884,1671367886.938,514,161529,94511
1008,89567.13066664472,1671367886.938,514,161529,94511
1009,89567.1365833106,1671367886.938,514,161477,94529
1009,89567.14249997647,1671367886.938,514,161477,94529
1010,89567.17891724438,1671367886.938,514,161474,94609
1010,89567.18681639986,1671367886.938,514,161474,94609
1011,89567.19471555534,1671367886.938,512,161475,94673
1011,89567.20261471081,1671367886.938,512,161475,94673
1012,89567.21051386629,1671367886.938,512,161481,94926
1012,89567.21841302176,1671367886.938,512,161481,94926
1013,89567.22631217724,1671367886.938,514,161427,95218
1013,89567.23421133272,1671367886.938,514,161427,95218
1014,89567.2421104882,1671367887.019,516,161504,95461
1014,89567.25000964367,1671367887.019,516,161504,95461
1015,89567.25790879915,1671367887.019,514,161458,95535
1015,89567.26580795462,1671367887.019,514,161458,95535
1016,89567.2737071101,1671367887.019,515,161444,95591
1016,89567.28160626558,1671367887.019,515,161444,95591
1017,89567.28950542105,1671367887.019,515,161428,95590
1017,89567.29740457653,1671367887.019,515,161428,95590
1018,89567.305303732,1671367887.019,514,161413,95737
1018,89567.31320288748,1671367887.019,514,161413,95737
1019,89567.32110204296,1671367887.019,515,161427,96100
1019,89567.32900119844,1671367887.019,515,161427,96100
1020,89567.32991299292,1671367887.119,516,161403,96708
1020,89567.33627744841,1671367887.119,516,161403,96708
1021,89567.3426419039,1671367887.119,519,161425,97787
1021,89567.34900635939,1671367887.119,519,161425,97787
1022,89567.35537081488,1671367887.119,518,161488,99025
1022,89567.36173527037,1671367887.119,518,161488,99025
1023,89567.36809972586,1671367887.119,520,161539,100475
1023,89567.37446418135,1671367887.119,520,161539,100475
1024,89567.38082863684,1671367887.119,522,161773,101907
1024,89567.38719309233,1671367887.119,522,161773,101907
1025,89567.39355754782,1671367887.119,521,162002,103002
1025,89567.39992200331,1671367887.119,521,162002,103002
1026,89567.4062864588,1671367887.207,523,162178,103680
1026,89567.4126509143,1671367887.207,523,162178,103680
1027,89567.41901536979,1671367887.207,524,162204,104045
1027,89567.42537982528,1671367887.207,524,162204,104045
1028,89567.43174428077,1671367887.207,524,162309,104398
1028,89567.43810873626,1671367887.207,524,162309,104398
1029,89567.44447319175,1671367887.207,523,162342,104381
1029,89567.45083764724,1671367887.207,523,162342,104381
1030,89567.48938444488,1671367887.207,523,162315,104262
1030,89567.49631194412,1671367887.207,523,162315,104262
1031,89567.50323944337,1671367887.207,525,162293,103941
1031,89567.51016694261,1671367887.207,525,162293,103941
1032,89567.51709444185,1671367887.298,522,162326,103212
1032,89567.52402194109,1671367887.298,522,162326,103212
1033,89567.53094944033,1671367887.298,519,162242,102506
1033,89567.53787693958,1671367887.298,519,162242,102506
1034,89567.54480443882,1671367887.298,521,162283,101911
1034,89567.55173193806,1671367887.298,521,162283,101911
1035,89567.5586594373,1671367887.298,519,162191,101478
1035,89567.56558693654,1671367887.298,519,162191,101478
1036,89567.57251443579,1671367887.298,519,162149,100900
1036,89567.57944193503,1671367887.298,519,162149,100900
1037,89567.58636943427,1671367887.298,519,162146,100253
1037,89567.59329693351,1671367887.298,519,162146,100253
1038,89567.60022443275,1671367887.402,517,162250,99020
1038,89567.607151932,1671367887.402,517,162250,99020
1039,89567.61407943124,1671367887.402,515,162539,97440
1039,89567.62100693048,1671367887.402,515,162539,97440
1040,89567.64535020036,1671367887.402,512,162869,96167
1040,89567.65317052393,1671367887.402,512,162869,96167
1041,89567.66099084751,1671367887.402,511,163100,95465
1041,89567.66881117108,1671367887.402,511,163100,95465
1042,89567.67663149466,1671367887.402,510,163484,95079
1042,89567.68445181823,1671367887.402,510,163484,95079
1043,89567.69227214181,1671367887.402,507,163731,94895
1043,89567.70009246538,1671367887.402,507,163731,94895
1044,89567.70791278896,1671367887.504,509,163830,95157
1044,89567.71573311253,1671367887.504,509,163830,95157
1045,89567.72355343611,1671367887.504,506,163936,95450
1045,89567.73137375969,1671367887.504,506,163936,95450
1046,89567.73919408326,1671367887.504,506,164190,95660
1046,89567.74701440684,1671367887.504,506,164190,95660
1047,89567.75483473041,1671367887.504,506,164297,95788
1047,89567.76265505399,1671367887.504,506,164297,95788
1048,89567.77047537756,1671367887.504,506,164335,95938
1048,89567.77829570114,1671367887.504,506,164335,95938
1049,89567.78611602471,1671367887.504,505,164559,96056
1049,89567.79393634829,1671367887.504,505,164559,96056
1050,89567.8173311527,1671367887.58,505,164700,96118
1050,89567.82532481517,1671367887.58,505,164700,96118
1051,89567.83331847764,1671367887.58,504,164939,96226
1051,89567.84131214011,1671367887.58,504,164939,96226
1052,89567.84930580258,1671367887.58,506,165077,96317
1052,89567.85729946505,1671367887.58,506,165077,96317
1053,89567.86529312751,1671367887.58,505,165215,96468
1053,89567.87328678998,1671367887.58,505,165215,96468
1054,89567.88128045245,1671367887.58,506,165314,96670
1054,89567.88927411492,1671367887.58,506,165314,96670
1055,89567.89726777739,1671367887.58,504,165487,96768
1055,89567.90526143985,1671367887.58,504,165487,96768
1056,89567.91325510232,1671367887.677,504,165621,96845
1056,89567.92124876479,1671367887.677,504,165621,96845
1057,89567.92924242726,1671367887.677,504,165809,96916
1057,89567.93723608973,1671367887.677,504,165809,96916
1058,89567.9452297522,1671367887.677,503,166151,97061
1058,89567.95322341466,1671367887.677,503,166151,97061
1059,89567.96121707713,1671367887.677,505,166580,97119
1059,89567.9692107396,1671367887.677,505,166580,97119
1060,89567.95689319835,1671367887.677,504,166801,97117
1060,89567.96440049922,1671367887.677,504,166801,97117
1061,89567.97190780008,1671367887.677,504,167096,97206
1061,89567.97941510094,1671367887.677,504,167096,97206
1062,89567.9869224018,1671367887.773,505,167349,97352
1062,89567.99442970267,1671367887.773,505,167349,97352
1063,89568.00193700353,1671367887.773,504,167525,97436
1063,89568.00944430439,1671367887.773,504,167525,97436
1064,89568.01695160526,1671367887.773,503,167743,97553
1064,89568.02445890612,1671367887.773,503,167743,97553
1065,89568.03196620698,1671367887.773,502,167948,97649
1065,89568.03947350784,1671367887.773,502,167948,97649
1066,89568.04698080871,1671367887.773,501,168330,97907
1066,89568.05448810957,1671367887.773,501,168330,97907
1067,89568.06199541043,1671367887.773,502,168675,98213
1067,89568.0695027113,1671367887.773,502,168675,98213
1068,89568.07701001216,1671367887.866,503,168952,98517
1068,89568.08451731302,1671367887.866,503,168952,98517
1069,89568.09202461388,1671367887.866,503,169197,98905
1069,89568.09953191475,1671367887.866,503,169197,98905
1070,89568.11639134215,1671367887.866,504,169257,99145
1070,89568.12372326199,1671367887.866,504,169257,99145
1071,89568.13105518183,1671367887.866,504,169521,99319
1071,89568.13838710167,1671367887.866,504,169521,99319
1072,89568.14571902152,1671367887.866,501,169873,99581
1072,89568.15305094136,1671367887.866,501,169873,99581
1073,89568.1603828612,1671367887.866,503,170572,99776
1073,89568.16771478104,1671367887.866,503,170572,99776
1074,89568.17504670088,1671367887.959,502,171370,100114
1074,89568.18237862072,1671367887.959,502,171370,100114
1075,89568.18971054057,1671367887.959,500,172408,100145
1075,89568.19704246041,1671367887.959,500,172408,100145
1076,89568.20437438025,1671367887.959,503,173669,100269
1076,89568.21170630009,1671367887.959,503,173669,100269
1077,89568.21903821993,1671367887.959,503,174385,100472
1077,89568.22637013978,1671367887.959,503,174385,100472
1078,89568.23370205962,1671367887.959,502,174827,100733
1078,89568.24103397946,1671367887.959,502,174827,100733
1079,89568.2483658993,1671367887.959,504,175658,100924
1079,89568.25569781914,1671367887.959,504,175658,100924
1080,89568.27109552863,1671367888.049,504,176425,101337
1080,89568.27835572872,1671367888.049,504,176425,101337
1081,89568.2856159288,1671367888.049,502,177560,101761
1081,89568.2928761289,1671367888.049,502,177560,101761
1082,89568.30013632898,1671367888.049,502,177724,102270
1082,89568.30739652907,1671367888.049,502,177724,102270
1083,89568.31465672916,1671367888.049,503,178246,102818
1083,89568.32191692924,1671367888.049,503,178246,102818
1084,89568.32917712933,1671367888.049,503,178492,103289
1084,89568.33643732942,1671367888.049,503,178492,103289
1085,89568.3436975295,1671367888.049,504,178931,103561
1085,89568.35095772959,1671367888.049,504,178931,103561
1086,89568.35821792968,1671367888.152,503,179135,103604
1086,89568.36547812977,1671367888.152,503,179135,103604
1087,89568.37273832985,1671367888.152,504,179768,103898
1087,89568.37999852994,1671367888.152,504,179768,103898
1088,89568.38725873003,1671367888.152,503,180212,103994
1088,89568.39451893012,1671367888.152,503,180212,103994
1089,89568.4017791302,1671367888.152,504,180201,103940
1089,89568.40903933029,1671367888.152,504,180201,103940
1090,89568.43054096875,1671367888.152,502,180239,103856
1090,89568.43854396697,1671367888.152,502,180239,103856
1091,89568.44654696519,1671367888.152,504,180080,103693
1091,89568.45454996341,1671367888.152,504,180080,103693
1092,89568.46255296163,1671367888.246,502,179643,103448
1092,89568.47055595985,1671367888.246,502,179643,103448
1093,89568.47855895807,1671367888.246,502,179662,103378
1093,89568.48656195629,1671367888.246,502,179662,103378
1094,89568.49456495451,1671367888.246,504,180060,103448
1094,89568.50256795273,1671367888.246,504,180060,103448
1095,89568.51057095095,1671367888.246,504,181139,103889
1095,89568.51857394917,1671367888.246,504,181139,103889
1096,89568.52657694739,1671367888.246,504,182631,104310
1096,89568.53457994561,1671367888.246,504,182631,104310
1097,89568.54258294383,1671367888.246,504,183919,104255
1097,89568.55058594205,1671367888.246,504,183919,104255
1098,89568.55858894027,1671367888.336,503,184523,104008
1098,89568.56659193849,1671367888.336,503,184523,104008
1099,89568.57459493671,1671367888.336,502,184559,103866
1099,89568.58259793493,1671367888.336,502,184559,103866
1100,89568.58805101067,1671367888.336,504,184413,103738
1100,89568.59517614232,1671367888.336,504,184413,103738
1101,89568.60230127398,1671367888.336,503,183878,103644
1101,89568.60942640563,1671367888.336,503,183878,103644
1102,89568.61655153728,1671367888.336,504,183294,103577
1102,89568.62367666894,1671367888.336,504,183294,103577
1103,89568.6308018006,1671367888.336,504,182315,103245
1103,89568.63792693225,1671367888.336,504,182315,103245
1104,89568.6450520639,1671367888.424,505,181275,102892
1104,89568.65217719556,1671367888.424,505,181275,102892
1105,89568.65930232721,1671367888.424,505,180615,102797
1105,89568.66642745887,1671367888.424,505,180615,102797
1106,89568.67355259052,1671367888.424,504,179656,102518
1106,89568.68067772218,1671367888.424,504,179656,102518
1107,89568.68780285383,1671367888.424,505,178592,102323
1107,89568.69492798549,1671367888.424,505,178592,102323
1108,89568.70205311714,1671367888.424,505,177765,102287
1108,89568.7091782488,1671367888.424,505,177765,102287
1109,89568.71630338045,1671367888.424,505,176632,102307
1109,89568.72342851211,1671367888.424,505,176632,102307
1110,89568.7355468702,1671367888.522,507,175805,101977
1110,89568.74241761447,1671367888.522,507,175805,101977
1111,89568.74928835874,1671367888.522,505,175342,101661
1111,89568.75615910301,1671367888.522,505,175342,101661
1112,89568.76302984728,1671367888.522,506,175004,101521
1112,89568.76990059155,1671367888.522,506,175004,101521
1113,89568.77677133582,1671367888.522,505,174668,101350
1113,89568.78364208009,1671367888.522,505,174668,101350
1114,89568.79051282436,1671367888.522,505,174194,101066
1114,89568.79738356863,1671367888.522,505,174194,101066
1115,89568.8042543129,1671367888.522,507,173670,100690
1115,89568.81112505717,1671367888.522,507,173670,100690
1116,89568.81799580144,1671367888.616,508,172729,100394
1116,89568.8248665457,1671367888.616,508,172729,100394
1117,89568.83173728998,1671367888.616,506,171813,100346
1117,89568.83860803425,1671367888.616,506,171813,100346
1118,89568.84547877852,1671367888.616,509,171438,100364
1118,89568.85234952279,1671367888.616,509,171438,100364
1119,89568.85922026706,1671367888.616,508,171254,99999
1119,89568.86609101132,1671367888.616,508,171254,99999
1120,89568.8971764375,1671367888.616,507,171033,99645
1120,89568.90457273796,1671367888.616,507,171033,99645
1121,89568.91196903841,1671367888.616,508,170638,99233
1121,89568.91936533886,1671367888.616,508,170638,99233
1122,89568.92676163932,1671367888.711,507,170490,99079
1122,89568.93415793977,1671367888.711,507,170490,99079
1123,89568.94155424023,1671367888.711,508,170358,99251
1123,89568.94895054068,1671367888.711,508,170358,99251
1124,89568.95634684114,1671367888.711,510,170100,99681
1124,89568.96374314159,1671367888.711,510,170100,99681
1125,89568.97113944204,1671367888.711,512,169522,100102
1125,89568.9785357425,1671367888.711,512,169522,100102
1126,89568.98593204295,1671367888.711,515,169149,101416
1126,89568.99332834341,1671367888.711,515,169149,101416
1127,89569.00072464386,1671367888.711,516,168766,101877
1127,89569.00812094432,1671367888.711,516,168766,101877
