id,lsl_ts,unix_ts,ambient,ir,red
60618,10320.41474095,1671625549.564,527,111327,63399
60618,10320.41474095,1671625549.564,527,111327,63399
60619,10320.4178078,1671625549.564,514,123647,64137
60619,10320.4178078,1671625549.564,514,123647,64137
60620,10320.42087465,1671625549.564,510,123587,64100
60620,10320.42087465,1671625549.564,510,123587,64100
60621,10320.4239415,1671625549.564,510,123700,64113
60621,10320.4239415,1671625549.564,510,123700,64113
60622,10320.42700835,1671625549.564,509,123733,64097
60622,10320.42700835,1671625549.564,509,123733,64097
60623,10320.4300752,1671625549.564,510,123639,64082
60623,10320.4300752,1671625549.564,510,123639,64082
60624,10320.441332033333,1671625549.632,509,123649,64079
60624,10320.441332033333,1671625549.632,509,123649,64079
60625,10320.452588866667,1671625549.632,510,123609,64041
60625,10320.452588866667,1671625549.632,510,123609,64041
60626,10320.4638457,1671625549.632,509,123696,64054
60626,10320.4638457,1671625549.632,509,123696,64054
60627,10320.475102533333,1671625549.632,510,123622,64050
60627,10320.475102533333,1671625549.632,510,123622,64050
60628,10320.486359366667,1671625549.632,510,123615,64041
60628,10320.486359366667,1671625549.632,510,123615,64041
60629,10320.4976162,1671625549.632,509,123555,64018
60629,10320.4976162,1671625549.632,509,123555,64018
60630,10320.504512533334,1671625549.673,510,123677,64017
60630,10320.504512533334,1671625549.673,510,123677,64017
60631,10320.511408866667,1671625549.673,509,123573,64017
60631,10320.511408866667,1671625549.673,509,123573,64017
60632,10320.5183052,1671625549.673,509,123529,64004
60632,10320.5183052,1671625549.673,509,123529,64004
60633,10320.525201533334,1671625549.673,508,123540,64000
60633,10320.525201533334,1671625549.673,508,123540,64000
60634,10320.532097866668,1671625549.673,508,123572,63991
60634,10320.532097866668,1671625549.673,508,123572,63991
60635,10320.5389942,1671625549.673,508,123592,63977
60635,10320.5389942,1671625549.673,508,123592,63977
60636,10320.5528768,1671625549.756,509,123552,64003
60636,10320.5528768,1671625549.756,509,123552,64003
60637,10320.5667594,1671625549.756,509,123460,63979
60637,10320.5667594,1671625549.756,509,123460,63979
60638,10320.580642,1671625549.756,509,123657,64018
60638,10320.580642,1671625549.756,509,123657,64018
60639,10320.5945246,1671625549.756,510,123619,63994
60639,10320.5945246,1671625549.756,510,123619,63994
60640,10320.6084072,1671625549.756,509,123615,63997
60640,10320.6084072,1671625549.756,509,123615,63997
60641,10320.6222898,1671625549.756,509,123545,63966
60641,10320.6222898,1671625549.756,509,123545,63966
60642,10320.63729355,1671625549.846,511,123619,63982
60642,10320.63729355,1671625549.846,511,123619,63982
60643,10320.6522973,1671625549.846,510,123641,63988
60643,10320.6522973,1671625549.846,510,123641,63988
60644,10320.66730105,1671625549.846,509,123618,63980
60644,10320.66730105,1671625549.846,509,123618,63980
60645,10320.6823048,1671625549.846,509,123748,64006
60645,10320.6823048,1671625549.846,509,123748,64006
60646,10320.69730855,1671625549.846,510,123655,63986
60646,10320.69730855,1671625549.846,510,123655,63986
60647,10320.7123123,1671625549.846,508,123805,64028
60647,10320.7123123,1671625549.846,508,123805,64028
60648,10320.72790615,1671625549.94,509,123744,64008
60648,10320.72790615,1671625549.94,509,123744,64008
60649,10320.7435,1671625549.94,509,123639,64007
60649,10320.7435,1671625549.94,509,123639,64007
60650,10320.75909385,1671625549.94,511,123709,64020
60650,10320.75909385,1671625549.94,511,123709,64020
60651,10320.774687699999,1671625549.94,511,123788,64016
60651,10320.774687699999,1671625549.94,511,123788,64016
60652,10320.79028155,1671625549.94,509,123886,64003
60652,10320.79028155,1671625549.94,509,123886,64003
60653,10320.8058754,1671625549.94,508,123747,64010
60653,10320.8058754,1671625549.94,508,123747,64010
60654,10320.822405283332,1671625550.039,509,123860,64033
60654,10320.822405283332,1671625550.039,509,123860,64033
60655,10320.838935166666,1671625550.039,509,123792,64020
60655,10320.838935166666,1671625550.039,509,123792,64020
60656,10320.855465050001,1671625550.039,508,123889,64032
60656,10320.855465050001,1671625550.039,508,123889,64032
60657,10320.871994933334,1671625550.039,510,123851,64028
60657,10320.871994933334,1671625550.039,510,123851,64028
60658,10320.888524816666,1671625550.039,510,123909,64059
60658,10320.888524816666,1671625550.039,510,123909,64059
60659,10320.9050547,1671625550.039,510,123898,64045
60659,10320.9050547,1671625550.039,510,123898,64045
60660,10320.920381883334,1671625550.131,510,123971,64065
60660,10320.920381883334,1671625550.131,510,123971,64065
60661,10320.935709066667,1671625550.131,510,123985,64073
60661,10320.935709066667,1671625550.131,510,123985,64073
60662,10320.95103625,1671625550.131,509,123993,64074
60662,10320.95103625,1671625550.131,509,123993,64074
60663,10320.966363433334,1671625550.131,509,123976,64075
60663,10320.966363433334,1671625550.131,509,123976,64075
60664,10320.981690616667,1671625550.131,510,124050,64101
60664,10320.981690616667,1671625550.131,510,124050,64101
60665,10320.9970178,1671625550.131,509,123907,64047
60665,10320.9970178,1671625550.131,509,123907,64047
60666,10321.011832516666,1671625550.22,509,124045,64102
60666,10321.011832516666,1671625550.22,509,124045,64102
60667,10321.026647233333,1671625550.22,511,124025,64073
60667,10321.026647233333,1671625550.22,511,124025,64073
60668,10321.04146195,1671625550.22,510,124047,64096
60668,10321.04146195,1671625550.22,510,124047,64096
60669,10321.056276666666,1671625550.22,510,124009,64105
60669,10321.056276666666,1671625550.22,510,124009,64105
60670,10321.071091383332,1671625550.22,510,124115,64117
60670,10321.071091383332,1671625550.22,510,124115,64117
60671,10321.0859061,1671625550.22,510,123942,64108
60671,10321.0859061,1671625550.22,510,123942,64108
60672,10321.100811483333,1671625550.309,511,123813,64073
60672,10321.100811483333,1671625550.309,511,123813,64073
60673,10321.115716866667,1671625550.309,509,123631,64046
60673,10321.115716866667,1671625550.309,509,123631,64046
60674,10321.130622249999,1671625550.309,510,123705,64020
60674,10321.130622249999,1671625550.309,510,123705,64020
60675,10321.145527633333,1671625550.309,510,123567,63995
60675,10321.145527633333,1671625550.309,510,123567,63995
60676,10321.160433016667,1671625550.309,510,123460,63993
60676,10321.160433016667,1671625550.309,510,123460,63993
60677,10321.1753384,1671625550.309,510,123525,64009
60677,10321.1753384,1671625550.309,510,123525,64009
60678,10321.193125133334,1671625550.416,511,123468,64002
60678,10321.193125133334,1671625550.416,511,123468,64002
60679,10321.210911866667,1671625550.416,509,123477,63966
60679,10321.210911866667,1671625550.416,509,123477,63966
60680,10321.2286986,1671625550.416,510,123491,63979
60680,10321.2286986,1671625550.416,510,123491,63979
60681,10321.246485333333,1671625550.416,511,123446,63969
60681,10321.246485333333,1671625550.416,511,123446,63969
60682,10321.264272066666,1671625550.416,510,123364,63935
60682,10321.264272066666,1671625550.416,510,123364,63935
60683,10321.2820588,1671625550.416,511,123367,63947
60683,10321.2820588,1671625550.416,511,123367,63947
60684,10321.297170599999,1671625550.507,510,123376,63920
60684,10321.297170599999,1671625550.507,510,123376,63920
60685,10321.3122824,1671625550.507,509,123483,63958
60685,10321.3122824,1671625550.507,509,123483,63958
60686,10321.3273942,1671625550.507,510,123477,63952
60686,10321.3273942,1671625550.507,510,123477,63952
60687,10321.342505999999,1671625550.507,510,123486,63949
60687,10321.342505999999,1671625550.507,510,123486,63949
60688,10321.3576178,1671625550.507,510,123384,63912
60688,10321.3576178,1671625550.507,510,123384,63912
60689,10321.3727296,1671625550.507,511,123309,63905
60689,10321.3727296,1671625550.507,511,123309,63905
60690,10321.3876691,1671625550.596,511,123418,63926
60690,10321.3876691,1671625550.596,511,123418,63926
60691,10321.4026086,1671625550.596,511,123329,63904
60691,10321.4026086,1671625550.596,511,123329,63904
60692,10321.4175481,1671625550.596,510,123366,63922
60692,10321.4175481,1671625550.596,510,123366,63922
60693,10321.432487600001,1671625550.596,510,123389,63885
60693,10321.432487600001,1671625550.596,510,123389,63885
60694,10321.4474271,1671625550.596,510,123357,63884
60694,10321.4474271,1671625550.596,510,123357,63884
60695,10321.4623666,1671625550.596,511,123291,63861
60695,10321.4623666,1671625550.596,511,123291,63861
60696,10321.47711985,1671625550.685,509,123395,63886
60696,10321.47711985,1671625550.685,509,123395,63886
60697,10321.4918731,1671625550.685,510,123389,63882
60697,10321.4918731,1671625550.685,510,123389,63882
60698,10321.506626350001,1671625550.685,512,123419,63912
60698,10321.506626350001,1671625550.685,512,123419,63912
60699,10321.5213796,1671625550.685,510,123450,63893
60699,10321.5213796,1671625550.685,510,123450,63893
60700,10321.53613285,1671625550.685,511,123434,63884
60700,10321.53613285,1671625550.685,511,123434,63884
60701,10321.5508861,1671625550.685,510,123352,63866
60701,10321.5508861,1671625550.685,510,123352,63866
60702,10321.568274483334,1671625550.789,509,123393,63871
60702,10321.568274483334,1671625550.789,509,123393,63871
60703,10321.585662866666,1671625550.789,508,123503,63879
60703,10321.585662866666,1671625550.789,508,123503,63879
60704,10321.60305125,1671625550.789,510,123479,63883
60704,10321.60305125,1671625550.789,510,123479,63883
60705,10321.620439633334,1671625550.789,510,123473,63880
60705,10321.620439633334,1671625550.789,510,123473,63880
60706,10321.637828016666,1671625550.789,509,123459,63867
60706,10321.637828016666,1671625550.789,509,123459,63867
60707,10321.6552164,1671625550.789,510,123556,63899
60707,10321.6552164,1671625550.789,510,123556,63899
60708,10321.670554816666,1671625550.881,509,123496,63891
60708,10321.670554816666,1671625550.881,509,123496,63891
60709,10321.685893233334,1671625550.881,510,123462,63880
60709,10321.685893233334,1671625550.881,510,123462,63880
60710,10321.70123165,1671625550.881,509,123565,63902
60710,10321.70123165,1671625550.881,509,123565,63902
60711,10321.716570066666,1671625550.881,510,123562,63885
60711,10321.716570066666,1671625550.881,510,123562,63885
60712,10321.731908483334,1671625550.881,509,123657,63904
60712,10321.731908483334,1671625550.881,509,123657,63904
60713,10321.7472469,1671625550.881,510,123558,63880
60713,10321.7472469,1671625550.881,510,123558,63880
60714,10321.761995983334,1671625550.97,511,123564,63894
60714,10321.761995983334,1671625550.97,511,123564,63894
60715,10321.776745066667,1671625550.97,511,123677,63896
60715,10321.776745066667,1671625550.97,511,123677,63896
60716,10321.79149415,1671625550.97,511,123524,63906
60716,10321.79149415,1671625550.97,511,123524,63906
60717,10321.806243233334,1671625550.97,509,123658,63910
60717,10321.806243233334,1671625550.97,509,123658,63910
60718,10321.820992316667,1671625550.97,511,123596,63885
60718,10321.820992316667,1671625550.97,511,123596,63885
60719,10321.8357414,1671625550.97,510,123685,63897
60719,10321.8357414,1671625550.97,510,123685,63897
60720,10321.850684866668,1671625551.059,510,123668,63905
60720,10321.850684866668,1671625551.059,510,123668,63905
60721,10321.865628333333,1671625551.059,511,123620,63917
60721,10321.865628333333,1671625551.059,511,123620,63917
60722,10321.8805718,1671625551.059,511,123700,63913
60722,10321.8805718,1671625551.059,511,123700,63913
60723,10321.895515266668,1671625551.059,510,123638,63916
60723,10321.895515266668,1671625551.059,510,123638,63916
60724,10321.910458733333,1671625551.059,510,123804,63929
60724,10321.910458733333,1671625551.059,510,123804,63929
60725,10321.9254022,1671625551.059,509,123865,63936
60725,10321.9254022,1671625551.059,509,123865,63936
60726,10321.943169233335,1671625551.166,510,123834,63931
60726,10321.943169233335,1671625551.166,510,123834,63931
60727,10321.960936266667,1671625551.166,510,123710,63898
60727,10321.960936266667,1671625551.166,510,123710,63898
60728,10321.9787033,1671625551.166,509,123676,63910
60728,10321.9787033,1671625551.166,509,123676,63910
60729,10321.996470333333,1671625551.166,510,123531,63885
60729,10321.996470333333,1671625551.166,510,123531,63885
60730,10322.014237366668,1671625551.166,508,123482,63882
60730,10322.014237366668,1671625551.166,508,123482,63882
60731,10322.0320044,1671625551.166,508,123492,63863
60731,10322.0320044,1671625551.166,508,123492,63863
60732,10322.0472167,1671625551.257,509,123294,63853
60732,10322.0472167,1671625551.257,509,123294,63853
60733,10322.062429,1671625551.257,508,123314,63821
60733,10322.062429,1671625551.257,508,123314,63821
60734,10322.0776413,1671625551.257,509,123324,63835
60734,10322.0776413,1671625551.257,509,123324,63835
60735,10322.092853600001,1671625551.257,509,123160,63813
60735,10322.092853600001,1671625551.257,509,123160,63813
60736,10322.1080659,1671625551.257,510,123174,63780
60736,10322.1080659,1671625551.257,510,123174,63780
60737,10322.1232782,1671625551.257,509,123217,63772
60737,10322.1232782,1671625551.257,509,123217,63772
60738,10322.1380747,1671625551.346,508,123220,63782
60738,10322.1380747,1671625551.346,508,123220,63782
60739,10322.1528712,1671625551.346,508,123122,63757
60739,10322.1528712,1671625551.346,508,123122,63757
60740,10322.1676677,1671625551.346,506,123223,63775
60740,10322.1676677,1671625551.346,506,123223,63775
60741,10322.182464200001,1671625551.346,508,123133,63719
60741,10322.182464200001,1671625551.346,508,123133,63719
60742,10322.1972607,1671625551.346,508,123103,63738
60742,10322.1972607,1671625551.346,508,123103,63738
60743,10322.2120572,1671625551.346,509,123197,63730
60743,10322.2120572,1671625551.346,509,123197,63730
60744,10322.226899666666,1671625551.435,508,123038,63697
60744,10322.226899666666,1671625551.435,508,123038,63697
60745,10322.241742133334,1671625551.435,508,123226,63738
60745,10322.241742133334,1671625551.435,508,123226,63738
60746,10322.2565846,1671625551.435,508,123077,63689
60746,10322.2565846,1671625551.435,508,123077,63689
60747,10322.271427066666,1671625551.435,508,122992,63686
60747,10322.271427066666,1671625551.435,508,122992,63686
60748,10322.286269533333,1671625551.435,508,123034,63687
60748,10322.286269533333,1671625551.435,508,123034,63687
60749,10322.301112,1671625551.435,508,122975,63676
60749,10322.301112,1671625551.435,508,122975,63676
60750,10322.318324683332,1671625551.538,509,123044,63664
60750,10322.318324683332,1671625551.538,509,123044,63664
60751,10322.335537366665,1671625551.538,509,123059,63647
60751,10322.335537366665,1671625551.538,509,123059,63647
60752,10322.352750049999,1671625551.538,510,123051,63654
60752,10322.352750049999,1671625551.538,510,123051,63654
60753,10322.369962733334,1671625551.538,508,123088,63664
60753,10322.369962733334,1671625551.538,508,123088,63664
60754,10322.387175416667,1671625551.538,510,123089,63652
60754,10322.387175416667,1671625551.538,510,123089,63652
60755,10322.4043881,1671625551.538,509,123032,63673
60755,10322.4043881,1671625551.538,509,123032,63673
60756,10322.419806483333,1671625551.631,509,123101,63678
60756,10322.419806483333,1671625551.631,509,123101,63678
60757,10322.435224866667,1671625551.631,509,123060,63662
60757,10322.435224866667,1671625551.631,509,123060,63662
60758,10322.45064325,1671625551.631,510,122937,63657
60758,10322.45064325,1671625551.631,510,122937,63657
60759,10322.466061633333,1671625551.631,508,123096,63657
60759,10322.466061633333,1671625551.631,508,123096,63657
60760,10322.481480016668,1671625551.631,509,123156,63675
60760,10322.481480016668,1671625551.631,509,123156,63675
60761,10322.4968984,1671625551.631,510,123138,63652
60761,10322.4968984,1671625551.631,510,123138,63652
60762,10322.512169283335,1671625551.723,509,123164,63659
60762,10322.512169283335,1671625551.723,509,123164,63659
60763,10322.527440166667,1671625551.723,510,123123,63654
60763,10322.527440166667,1671625551.723,510,123123,63654
60764,10322.54271105,1671625551.723,509,123094,63644
60764,10322.54271105,1671625551.723,509,123094,63644
60765,10322.557981933334,1671625551.723,509,123161,63665
60765,10322.557981933334,1671625551.723,509,123161,63665
60766,10322.573252816666,1671625551.723,509,123126,63651
60766,10322.573252816666,1671625551.723,509,123126,63651
60767,10322.5885237,1671625551.723,509,123182,63636
60767,10322.5885237,1671625551.723,509,123182,63636
60768,10322.604458433334,1671625551.818,507,123259,63668
60768,10322.604458433334,1671625551.818,507,123259,63668
60769,10322.620393166666,1671625551.818,508,123176,63665
60769,10322.620393166666,1671625551.818,508,123176,63665
60770,10322.6363279,1671625551.818,508,123242,63656
60770,10322.6363279,1671625551.818,508,123242,63656
60771,10322.652262633334,1671625551.818,509,123196,63653
60771,10322.652262633334,1671625551.818,509,123196,63653
60772,10322.668197366665,1671625551.818,508,123178,63643
60772,10322.668197366665,1671625551.818,508,123178,63643
60773,10322.6841321,1671625551.818,509,123271,63671
60773,10322.6841321,1671625551.818,509,123271,63671
60774,10322.700361449999,1671625551.916,507,123276,63667
60774,10322.700361449999,1671625551.916,507,123276,63667
60775,10322.716590799999,1671625551.916,508,123373,63679
60775,10322.716590799999,1671625551.916,508,123373,63679
60776,10322.732820149999,1671625551.916,508,123401,63704
60776,10322.732820149999,1671625551.916,508,123401,63704
60777,10322.7490495,1671625551.916,508,123352,63665
60777,10322.7490495,1671625551.916,508,123352,63665
60778,10322.76527885,1671625551.916,509,123320,63659
60778,10322.76527885,1671625551.916,509,123320,63659
60779,10322.7815082,1671625551.916,511,123351,63649
60779,10322.7815082,1671625551.916,511,123351,63649
60780,10322.796571116667,1671625552.006,508,123386,63667
60780,10322.796571116667,1671625552.006,508,123386,63667
60781,10322.811634033333,1671625552.006,508,123406,63676
60781,10322.811634033333,1671625552.006,508,123406,63676
60782,10322.82669695,1671625552.006,508,123434,63659
60782,10322.82669695,1671625552.006,508,123434,63659
60783,10322.841759866667,1671625552.006,507,123331,63681
60783,10322.841759866667,1671625552.006,507,123331,63681
60784,10322.856822783333,1671625552.006,509,123429,63677
60784,10322.856822783333,1671625552.006,509,123429,63677
60785,10322.8718857,1671625552.006,509,123230,63668
60785,10322.8718857,1671625552.006,509,123230,63668
60786,10322.887866250001,1671625552.102,511,123272,63616
60786,10322.887866250001,1671625552.102,511,123272,63616
60787,10322.9038468,1671625552.102,510,123190,63605
60787,10322.9038468,1671625552.102,510,123190,63605
60788,10322.91982735,1671625552.102,511,123017,63554
60788,10322.91982735,1671625552.102,511,123017,63554
60789,10322.935807900001,1671625552.102,509,122950,63553
60789,10322.935807900001,1671625552.102,509,122950,63553
60790,10322.95178845,1671625552.102,509,122826,63517
60790,10322.95178845,1671625552.102,509,122826,63517
60791,10322.967769,1671625552.102,510,122804,63515
60791,10322.967769,1671625552.102,510,122804,63515
60792,10322.98168565,1671625552.185,510,122843,63541
60792,10322.98168565,1671625552.185,510,122843,63541
60793,10322.995602300001,1671625552.185,510,122858,63541
60793,10322.995602300001,1671625552.185,510,122858,63541
60794,10323.00951895,1671625552.185,510,122795,63533
60794,10323.00951895,1671625552.185,510,122795,63533
60795,10323.0234356,1671625552.185,509,122867,63542
60795,10323.0234356,1671625552.185,509,122867,63542
60796,10323.037352250001,1671625552.185,511,122778,63534
60796,10323.037352250001,1671625552.185,511,122778,63534
60797,10323.0512689,1671625552.185,510,122794,63551
60797,10323.0512689,1671625552.185,510,122794,63551
60798,10323.068422866667,1671625552.288,510,122775,63547
60798,10323.068422866667,1671625552.288,510,122775,63547
60799,10323.085576833333,1671625552.288,509,122805,63558
60799,10323.085576833333,1671625552.288,509,122805,63558
60800,10323.102730800001,1671625552.288,509,122878,63522
60800,10323.102730800001,1671625552.288,509,122878,63522
60801,10323.119884766667,1671625552.288,510,122695,63522
60801,10323.119884766667,1671625552.288,510,122695,63522
60802,10323.137038733334,1671625552.288,510,122719,63492
60802,10323.137038733334,1671625552.288,510,122719,63492
60803,10323.1541927,1671625552.288,510,122715,63514
60803,10323.1541927,1671625552.288,510,122715,63514
60804,10323.170591633334,1671625552.387,510,122673,63494
60804,10323.170591633334,1671625552.387,510,122673,63494
60805,10323.186990566666,1671625552.387,509,122586,63480
60805,10323.186990566666,1671625552.387,509,122586,63480
60806,10323.203389499999,1671625552.387,510,122733,63476
60806,10323.203389499999,1671625552.387,510,122733,63476
60807,10323.219788433333,1671625552.387,511,122562,63436
60807,10323.219788433333,1671625552.387,511,122562,63436
60808,10323.236187366667,1671625552.387,510,122512,63436
60808,10323.236187366667,1671625552.387,510,122512,63436
60809,10323.2525863,1671625552.387,512,122621,63450
60809,10323.2525863,1671625552.387,512,122621,63450
60810,10323.2672197,1671625552.474,512,122623,63446
60810,10323.2672197,1671625552.474,512,122623,63446
60811,10323.2818531,1671625552.474,511,122715,63497
60811,10323.2818531,1671625552.474,511,122715,63497
60812,10323.2964865,1671625552.474,512,122684,63487
60812,10323.2964865,1671625552.474,512,122684,63487
60813,10323.3111199,1671625552.474,510,122708,63476
60813,10323.3111199,1671625552.474,510,122708,63476
60814,10323.3257533,1671625552.474,512,122671,63452
60814,10323.3257533,1671625552.474,512,122671,63452
60815,10323.3403867,1671625552.474,511,122732,63450
60815,10323.3403867,1671625552.474,511,122732,63450
60816,10323.357114733333,1671625552.575,509,122719,63491
60816,10323.357114733333,1671625552.575,509,122719,63491
60817,10323.373842766667,1671625552.575,512,122706,63512
60817,10323.373842766667,1671625552.575,512,122706,63512
60818,10323.3905708,1671625552.575,511,122711,63500
60818,10323.3905708,1671625552.575,511,122711,63500
60819,10323.407298833334,1671625552.575,511,122768,63517
60819,10323.407298833334,1671625552.575,511,122768,63517
60820,10323.424026866667,1671625552.575,511,122866,63522
60820,10323.424026866667,1671625552.575,511,122866,63522
60821,10323.4407549,1671625552.575,512,122776,63495
60821,10323.4407549,1671625552.575,512,122776,63495
60822,10323.455753416667,1671625552.665,510,122804,63516
60822,10323.455753416667,1671625552.665,510,122804,63516
60823,10323.470751933333,1671625552.665,510,122706,63504
60823,10323.470751933333,1671625552.665,510,122706,63504
60824,10323.48575045,1671625552.665,511,122791,63538
60824,10323.48575045,1671625552.665,511,122791,63538
60825,10323.500748966668,1671625552.665,512,122853,63520
60825,10323.500748966668,1671625552.665,512,122853,63520
60826,10323.515747483334,1671625552.665,511,122772,63513
60826,10323.515747483334,1671625552.665,511,122772,63513
60827,10323.530746,1671625552.665,510,122767,63520
60827,10323.530746,1671625552.665,510,122767,63520
60828,10323.54577885,1671625552.755,510,122741,63503
60828,10323.54577885,1671625552.755,510,122741,63503
60829,10323.560811700001,1671625552.755,510,122872,63526
60829,10323.560811700001,1671625552.755,510,122872,63526
60830,10323.57584455,1671625552.755,509,122876,63546
60830,10323.57584455,1671625552.755,509,122876,63546
60831,10323.5908774,1671625552.755,510,122889,63536
60831,10323.5908774,1671625552.755,510,122889,63536
60832,10323.60591025,1671625552.755,510,122811,63519
60832,10323.60591025,1671625552.755,510,122811,63519
60833,10323.6209431,1671625552.755,511,122836,63523
60833,10323.6209431,1671625552.755,511,122836,63523
60834,10323.636084966667,1671625552.846,510,122894,63533
60834,10323.636084966667,1671625552.846,510,122894,63533
60835,10323.651226833334,1671625552.846,509,122901,63525
60835,10323.651226833334,1671625552.846,509,122901,63525
60836,10323.6663687,1671625552.846,508,122806,63523
60836,10323.6663687,1671625552.846,508,122806,63523
60837,10323.681510566666,1671625552.846,508,122655,63476
60837,10323.681510566666,1671625552.846,508,122655,63476
60838,10323.696652433333,1671625552.846,509,122666,63465
60838,10323.696652433333,1671625552.846,509,122666,63465
60839,10323.7117943,1671625552.846,508,122462,63450
60839,10323.7117943,1671625552.846,508,122462,63450
60840,10323.7271857,1671625552.938,508,122555,63471
60840,10323.7271857,1671625552.938,508,122555,63471
60841,10323.7425771,1671625552.938,509,122409,63415
60841,10323.7425771,1671625552.938,509,122409,63415
60842,10323.7579685,1671625552.938,508,122351,63419
60842,10323.7579685,1671625552.938,508,122351,63419
60843,10323.7733599,1671625552.938,508,122316,63415
60843,10323.7733599,1671625552.938,508,122316,63415
60844,10323.7887513,1671625552.938,508,122355,63423
60844,10323.7887513,1671625552.938,508,122355,63423
60845,10323.8041427,1671625552.938,508,122359,63420
60845,10323.8041427,1671625552.938,508,122359,63420
60846,10323.821062783334,1671625553.04,507,122299,63389
60846,10323.821062783334,1671625553.04,507,122299,63389
60847,10323.837982866668,1671625553.04,508,122253,63392
60847,10323.837982866668,1671625553.04,508,122253,63392
60848,10323.854902949999,1671625553.04,509,122256,63373
60848,10323.854902949999,1671625553.04,509,122256,63373
60849,10323.871823033332,1671625553.04,509,122243,63353
60849,10323.871823033332,1671625553.04,509,122243,63353
60850,10323.888743116666,1671625553.04,509,122278,63381
60850,10323.888743116666,1671625553.04,509,122278,63381
60851,10323.9056632,1671625553.04,508,122333,63335
60851,10323.9056632,1671625553.04,508,122333,63335
60852,10323.920895349998,1671625553.131,507,122231,63340
60852,10323.920895349998,1671625553.131,507,122231,63340
60853,10323.9361275,1671625553.131,508,122343,63355
60853,10323.9361275,1671625553.131,508,122343,63355
60854,10323.95135965,1671625553.131,508,122332,63337
60854,10323.95135965,1671625553.131,508,122332,63337
60855,10323.9665918,1671625553.131,508,122276,63338
60855,10323.9665918,1671625553.131,508,122276,63338
60856,10323.981823949998,1671625553.131,508,122194,63345
60856,10323.981823949998,1671625553.131,508,122194,63345
60857,10323.9970561,1671625553.131,508,122275,63355
60857,10323.9970561,1671625553.131,508,122275,63355
60858,10324.012192433333,1671625553.222,508,122230,63345
60858,10324.012192433333,1671625553.222,508,122230,63345
60859,10324.027328766666,1671625553.222,509,122160,63324
60859,10324.027328766666,1671625553.222,509,122160,63324
60860,10324.0424651,1671625553.222,508,122151,63324
60860,10324.0424651,1671625553.222,508,122151,63324
60861,10324.057601433333,1671625553.222,507,122116,63292
60861,10324.057601433333,1671625553.222,507,122116,63292
60862,10324.072737766666,1671625553.222,508,122147,63296
60862,10324.072737766666,1671625553.222,508,122147,63296
60863,10324.0878741,1671625553.222,508,122224,63287
60863,10324.0878741,1671625553.222,508,122224,63287
60864,10324.10324575,1671625553.314,508,122136,63270
60864,10324.10324575,1671625553.314,508,122136,63270
60865,10324.1186174,1671625553.314,511,122141,63277
60865,10324.1186174,1671625553.314,511,122141,63277
60866,10324.133989049998,1671625553.314,510,122061,63225
60866,10324.133989049998,1671625553.314,510,122061,63225
60867,10324.1493607,1671625553.314,509,122189,63239
60867,10324.1493607,1671625553.314,509,122189,63239
60868,10324.158713563567,1671625553.314,508,122171,63248
60868,10324.16591244177,1671625553.314,508,122171,63248
60869,10324.173111319971,1671625553.314,510,122194,63230
60869,10324.180310198173,1671625553.314,510,122194,63230
60870,10324.187509076375,1671625553.408,508,122277,63273
60870,10324.194707954577,1671625553.408,508,122277,63273
60871,10324.201906832779,1671625553.408,507,122348,63287
60871,10324.209105710981,1671625553.408,507,122348,63287
60872,10324.216304589183,1671625553.408,509,122337,63258
60872,10324.223503467385,1671625553.408,509,122337,63258
60873,10324.230702345587,1671625553.408,510,122371,63297
60873,10324.237901223789,1671625553.408,510,122371,63297
60874,10324.24510010199,1671625553.408,510,122373,63291
60874,10324.252298980193,1671625553.408,510,122373,63291
60875,10324.259497858395,1671625553.408,510,122381,63329
60875,10324.266696736597,1671625553.408,510,122381,63329
60876,10324.273895614799,1671625553.506,508,122325,63318
60876,10324.281094493,1671625553.506,508,122325,63318
60877,10324.288293371203,1671625553.506,509,122341,63281
60877,10324.295492249405,1671625553.506,509,122341,63281
60878,10324.316082092746,1671625553.506,510,122309,63258
60878,10324.323658138303,1671625553.506,510,122309,63258
60879,10324.33123418386,1671625553.506,509,122286,63281
60879,10324.338810229416,1671625553.506,509,122286,63281
60880,10324.346386274972,1671625553.506,509,122397,63276
60880,10324.353962320529,1671625553.506,509,122397,63276
60881,10324.361538366085,1671625553.506,509,122379,63267
60881,10324.369114411642,1671625553.506,509,122379,63267
60882,10324.376690457198,1671625553.595,508,122183,63249
60882,10324.384266502755,1671625553.595,508,122183,63249
60883,10324.391842548312,1671625553.595,509,122152,63250
60883,10324.399418593868,1671625553.595,509,122152,63250
60884,10324.406994639425,1671625553.595,507,122064,63260
60884,10324.414570684981,1671625553.595,507,122064,63260
60885,10324.422146730538,1671625553.595,509,122076,63272
60885,10324.429722776094,1671625553.595,509,122076,63272
60886,10324.437298821651,1671625553.595,508,121999,63274
60886,10324.444874867208,1671625553.595,508,121999,63274
60887,10324.452450912764,1671625553.595,508,122125,63286
60887,10324.46002695832,1671625553.595,508,122125,63286
60888,10324.470490328576,1671625553.689,509,122024,63252
60888,10324.477483979863,1671625553.689,509,122024,63252
60889,10324.48447763115,1671625553.689,507,121951,63253
60889,10324.491471282436,1671625553.689,507,121951,63253
60890,10324.498464933722,1671625553.689,509,121942,63227
60890,10324.505458585008,1671625553.689,509,121942,63227
60891,10324.512452236295,1671625553.689,509,121847,63214
60891,10324.519445887581,1671625553.689,509,121847,63214
60892,10324.526439538868,1671625553.689,509,121865,63204
60892,10324.533433190154,1671625553.689,509,121865,63204
60893,10324.54042684144,1671625553.689,509,121894,63204
60893,10324.547420492727,1671625553.689,509,121894,63204
60894,10324.554414144013,1671625553.774,508,121890,63198
60894,10324.5614077953,1671625553.774,508,121890,63198
60895,10324.568401446586,1671625553.774,509,121931,63206
60895,10324.575395097872,1671625553.774,509,121931,63206
60896,10324.582388749159,1671625553.774,509,122001,63205
60896,10324.589382400445,1671625553.774,509,122001,63205
60897,10324.596376051732,1671625553.774,510,121880,63188
60897,10324.603369703018,1671625553.774,510,121880,63188
60898,10324.620498271748,1671625553.774,510,121888,63199
60898,10324.627237349232,1671625553.774,510,121888,63199
60899,10324.633976426716,1671625553.774,508,122020,63223
60899,10324.6407155042,1671625553.774,508,122020,63223
60900,10324.647454581684,1671625553.881,508,121950,63215
60900,10324.654193659168,1671625553.881,508,121950,63215
60901,10324.660932736651,1671625553.881,509,121857,63201
60901,10324.667671814135,1671625553.881,509,121857,63201
60902,10324.67441089162,1671625553.881,510,121801,63168
60902,10324.681149969103,1671625553.881,510,121801,63168
60903,10324.687889046587,1671625553.881,509,121889,63194
60903,10324.69462812407,1671625553.881,509,121889,63194
60904,10324.701367201555,1671625553.881,510,121801,63202
60904,10324.708106279038,1671625553.881,510,121801,63202
60905,10324.714845356522,1671625553.881,512,121924,63196
60905,10324.721584434006,1671625553.881,512,121924,63196
60906,10324.72832351149,1671625553.973,510,121829,63233
60906,10324.735062588974,1671625553.973,510,121829,63233
60907,10324.741801666458,1671625553.973,509,121896,63214
60907,10324.748540743942,1671625553.973,509,121896,63214
60908,10324.787421615734,1671625553.973,510,121927,63196
60908,10324.794938666251,1671625553.973,510,121927,63196
60909,10324.802455716768,1671625553.973,510,121827,63202
60909,10324.809972767285,1671625553.973,510,121827,63202
60910,10324.817489817802,1671625553.973,509,122017,63256
60910,10324.82500686832,1671625553.973,509,122017,63256
60911,10324.832523918836,1671625553.973,510,121952,63220
60911,10324.840040969353,1671625553.973,510,121952,63220
60912,10324.84755801987,1671625554.059,509,121951,63245
60912,10324.855075070387,1671625554.059,509,121951,63245
60913,10324.862592120904,1671625554.059,511,121932,63237
60913,10324.870109171421,1671625554.059,511,121932,63237
60914,10324.877626221938,1671625554.059,511,121968,63226
60914,10324.885143272455,1671625554.059,511,121968,63226
60915,10324.892660322972,1671625554.059,509,122055,63252
60915,10324.900177373489,1671625554.059,509,122055,63252
60916,10324.907694424006,1671625554.059,509,122068,63248
60916,10324.915211474523,1671625554.059,509,122068,63248
60917,10324.92272852504,1671625554.059,509,122060,63281
60917,10324.930245575557,1671625554.059,509,122060,63281
60918,10324.934126524955,1671625554.166,511,122031,63249
60918,10324.940894944426,1671625554.166,511,122031,63249
60919,10324.947663363897,1671625554.166,511,122051,63263
60919,10324.954431783368,1671625554.166,511,122051,63263
60920,10324.961200202839,1671625554.166,511,121952,63234
60920,10324.96796862231,1671625554.166,511,121952,63234
60921,10324.97473704178,1671625554.166,510,122052,63258
60921,10324.981505461252,1671625554.166,510,122052,63258
60922,10324.988273880723,1671625554.166,511,122079,63269
60922,10324.995042300194,1671625554.166,511,122079,63269
60923,10325.001810719665,1671625554.166,509,122089,63277
60923,10325.008579139136,1671625554.166,509,122089,63277
60924,10325.015347558607,1671625554.257,510,122022,63283
60924,10325.022115978078,1671625554.257,510,122022,63283
60925,10325.028884397549,1671625554.257,510,121951,63267
60925,10325.03565281702,1671625554.257,510,121951,63267
60926,10325.04242123649,1671625554.257,509,121926,63257
60926,10325.049189655962,1671625554.257,509,121926,63257
60927,10325.055958075432,1671625554.257,510,121738,63247
60927,10325.062726494903,1671625554.257,510,121738,63247
60928,10325.102060054121,1671625554.257,511,121736,63217
60928,10325.109258237311,1671625554.257,511,121736,63217
60929,10325.116456420501,1671625554.257,511,121617,63184
60929,10325.12365460369,1671625554.257,511,121617,63184
60930,10325.13085278688,1671625554.346,511,121656,63193
60930,10325.13805097007,1671625554.346,511,121656,63193
60931,10325.14524915326,1671625554.346,508,121579,63208
60931,10325.15244733645,1671625554.346,508,121579,63208
60932,10325.15964551964,1671625554.346,511,121530,63180
60932,10325.16684370283,1671625554.346,511,121530,63180
60933,10325.174041886019,1671625554.346,509,121554,63191
60933,10325.181240069209,1671625554.346,509,121554,63191
60934,10325.188438252399,1671625554.346,509,121614,63173
60934,10325.195636435588,1671625554.346,509,121614,63173
60935,10325.202834618778,1671625554.346,510,121592,63191
60935,10325.210032801968,1671625554.346,510,121592,63191
60936,10325.217230985158,1671625554.435,510,121563,63172
60936,10325.224429168347,1671625554.435,510,121563,63172
60937,10325.231627351537,1671625554.435,511,121498,63165
60937,10325.238825534727,1671625554.435,511,121498,63165
60938,10325.250589328558,1671625554.435,514,121563,63164
60938,10325.25757331607,1671625554.435,514,121563,63164
60939,10325.264557303582,1671625554.435,510,121599,63191
60939,10325.271541291095,1671625554.435,510,121599,63191
60940,10325.278525278607,1671625554.435,510,121627,63168
60940,10325.28550926612,1671625554.435,510,121627,63168
60941,10325.292493253632,1671625554.435,511,121495,63160
60941,10325.299477241144,1671625554.435,511,121495,63160
60942,10325.306461228656,1671625554.529,511,121506,63166
60942,10325.313445216168,1671625554.529,511,121506,63166
60943,10325.32042920368,1671625554.529,510,121520,63174
60943,10325.327413191193,1671625554.529,510,121520,63174
60944,10325.334397178705,1671625554.529,510,121493,63154
60944,10325.341381166218,1671625554.529,510,121493,63154
60945,10325.34836515373,1671625554.529,511,121457,63153
60945,10325.355349141242,1671625554.529,511,121457,63153
60946,10325.362333128754,1671625554.529,510,121456,63161
60946,10325.369317116267,1671625554.529,510,121456,63161
60947,10325.376301103779,1671625554.529,509,121482,63151
60947,10325.383285091291,1671625554.529,509,121482,63151
60948,10325.404673510935,1671625554.63,510,121491,63156
60948,10325.411998434503,1671625554.63,510,121491,63156
60949,10325.419323358072,1671625554.63,510,121443,63145
60949,10325.42664828164,1671625554.63,510,121443,63145
60950,10325.433973205209,1671625554.63,512,121467,63145
60950,10325.441298128777,1671625554.63,512,121467,63145
60951,10325.448623052345,1671625554.63,510,121376,63162
60951,10325.455947975914,1671625554.63,510,121376,63162
60952,10325.463272899482,1671625554.63,510,121481,63162
60952,10325.47059782305,1671625554.63,510,121481,63162
60953,10325.477922746619,1671625554.63,510,121476,63157
60953,10325.485247670187,1671625554.63,510,121476,63157
60954,10325.492572593756,1671625554.721,510,121566,63180
60954,10325.499897517324,1671625554.721,510,121566,63180
60955,10325.507222440892,1671625554.721,509,121595,63206
60955,10325.51454736446,1671625554.721,509,121595,63206
60956,10325.521872288029,1671625554.721,510,121526,63165
60956,10325.529197211597,1671625554.721,510,121526,63165
60957,10325.536522135166,1671625554.721,510,121539,63190
60957,10325.543847058734,1671625554.721,510,121539,63190
60958,10325.566022673704,1671625554.721,509,121600,63182
60958,10325.573201146464,1671625554.721,509,121600,63182
60959,10325.580379619225,1671625554.721,511,121575,63191
60959,10325.587558091986,1671625554.721,511,121575,63191
60960,10325.594736564746,1671625554.818,511,121556,63174
60960,10325.601915037507,1671625554.818,511,121556,63174
60961,10325.609093510267,1671625554.818,509,121585,63218
60961,10325.616271983028,1671625554.818,509,121585,63218
60962,10325.623450455789,1671625554.818,509,121710,63210
60962,10325.63062892855,1671625554.818,509,121710,63210
60963,10325.63780740131,1671625554.818,509,121606,63219
60963,10325.64498587407,1671625554.818,509,121606,63219
60964,10325.652164346831,1671625554.818,510,121588,63188
60964,10325.659342819592,1671625554.818,510,121588,63188
60965,10325.666521292353,1671625554.818,509,121591,63220
60965,10325.673699765113,1671625554.818,509,121591,63220
60966,10325.680878237874,1671625554.915,510,121589,63229
60966,10325.688056710635,1671625554.915,510,121589,63229
60967,10325.695235183395,1671625554.915,512,121632,63238
60967,10325.702413656156,1671625554.915,512,121632,63238
60968,10325.725942859995,1671625554.915,511,121522,63215
60968,10325.733545981911,1671625554.915,511,121522,63215
60969,10325.741149103827,1671625554.915,512,121456,63203
60969,10325.748752225743,1671625554.915,512,121456,63203
60970,10325.75635534766,1671625554.915,511,121379,63189
60970,10325.763958469575,1671625554.915,511,121379,63189
60971,10325.771561591491,1671625554.915,514,121285,63151
60971,10325.779164713407,1671625554.915,514,121285,63151
60972,10325.786767835323,1671625555.007,511,121307,63151
60972,10325.79437095724,1671625555.007,511,121307,63151
60973,10325.801974079155,1671625555.007,509,121190,63158
60973,10325.809577201071,1671625555.007,509,121190,63158
60974,10325.817180322987,1671625555.007,509,121231,63168
60974,10325.824783444903,1671625555.007,509,121231,63168
60975,10325.832386566819,1671625555.007,510,121183,63158
60975,10325.839989688735,1671625555.007,510,121183,63158
60976,10325.84759281065,1671625555.007,511,121214,63151
60976,10325.855195932567,1671625555.007,511,121214,63151
60977,10325.862799054483,1671625555.007,510,121262,63155
60977,10325.870402176399,1671625555.007,510,121262,63155
60978,10325.882369695444,1671625555.096,511,121179,63114
60978,10325.889547368857,1671625555.096,511,121179,63114
60979,10325.89672504227,1671625555.096,509,121219,63146
60979,10325.903902715683,1671625555.096,509,121219,63146
60980,10325.911080389096,1671625555.096,510,121213,63144
60980,10325.91825806251,1671625555.096,510,121213,63144
60981,10325.925435735922,1671625555.096,509,121147,63119
60981,10325.932613409335,1671625555.096,509,121147,63119
60982,10325.939791082748,1671625555.096,509,121158,63135
60982,10325.946968756161,1671625555.096,509,121158,63135
60983,10325.954146429574,1671625555.096,511,121126,63135
60983,10325.961324102987,1671625555.096,511,121126,63135
60984,10325.9685017764,1671625555.185,511,121188,63143
60984,10325.975679449813,1671625555.185,511,121188,63143
60985,10325.982857123226,1671625555.185,511,121176,63126
60985,10325.99003479664,1671625555.185,511,121176,63126
60986,10325.997212470053,1671625555.185,510,121211,63148
60986,10326.004390143466,1671625555.185,510,121211,63148
60987,10326.011567816879,1671625555.185,511,121088,63120
60987,10326.018745490292,1671625555.185,511,121088,63120
60988,10326.030100248792,1671625555.185,509,121125,63118
60988,10326.03704451599,1671625555.185,509,121125,63118
60989,10326.043988783187,1671625555.185,507,121167,63118
60989,10326.050933050385,1671625555.185,507,121167,63118
60990,10326.057877317582,1671625555.289,510,121164,63129
60990,10326.06482158478,1671625555.289,510,121164,63129
60991,10326.071765851977,1671625555.289,511,121111,63145
60991,10326.078710119175,1671625555.289,511,121111,63145
60992,10326.085654386372,1671625555.289,511,121156,63155
60992,10326.09259865357,1671625555.289,511,121156,63155
60993,10326.099542920767,1671625555.289,511,121147,63126
60993,10326.106487187964,1671625555.289,511,121147,63126
60994,10326.113431455162,1671625555.289,510,121139,63140
60994,10326.12037572236,1671625555.289,510,121139,63140
60995,10326.127319989557,1671625555.289,511,121146,63130
60995,10326.134264256754,1671625555.289,511,121146,63130
60996,10326.141208523952,1671625555.38,509,121182,63155
60996,10326.14815279115,1671625555.38,509,121182,63155
60997,10326.155097058347,1671625555.38,510,121167,63149
60997,10326.162041325544,1671625555.38,510,121167,63149
60998,10326.195476856321,1671625555.38,511,121107,63146
60998,10326.202902818502,1671625555.38,511,121107,63146
60999,10326.210328780684,1671625555.38,511,121181,63179
60999,10326.217754742866,1671625555.38,511,121181,63179
61000,10326.225180705047,1671625555.38,510,121104,63164
61000,10326.232606667229,1671625555.38,510,121104,63164
61001,10326.24003262941,1671625555.38,511,121113,63155
61001,10326.247458591592,1671625555.38,511,121113,63155
61002,10326.254884553773,1671625555.472,510,121232,63178
61002,10326.262310515955,1671625555.472,510,121232,63178
61003,10326.269736478136,1671625555.472,510,121268,63189
61003,10326.277162440318,1671625555.472,510,121268,63189
61004,10326.2845884025,1671625555.472,509,121236,63185
61004,10326.29201436468,1671625555.472,509,121236,63185
61005,10326.299440326862,1671625555.472,508,121165,63202
61005,10326.306866289044,1671625555.472,508,121165,63202
61006,10326.314292251225,1671625555.472,510,121311,63217
61006,10326.321718213407,1671625555.472,510,121311,63217
61007,10326.329144175588,1671625555.472,510,121332,63220
61007,10326.33657013777,1671625555.472,510,121332,63220
61008,10326.347680437395,1671625555.561,510,121263,63204
61008,10326.35486595723,1671625555.561,510,121263,63204
61009,10326.362051477065,1671625555.561,510,121165,63187
61009,10326.3692369969,1671625555.561,510,121165,63187
61010,10326.376422516734,1671625555.561,511,121224,63206
61010,10326.383608036569,1671625555.561,511,121224,63206
61011,10326.390793556404,1671625555.561,510,121034,63192
61011,10326.397979076239,1671625555.561,510,121034,63192
61012,10326.405164596074,1671625555.561,511,121001,63194
61012,10326.412350115908,1671625555.561,511,121001,63194
61013,10326.419535635743,1671625555.561,510,120999,63188
61013,10326.426721155578,1671625555.561,510,120999,63188
61014,10326.433906675413,1671625555.664,511,120995,63173
61014,10326.441092195248,1671625555.664,511,120995,63173
61015,10326.448277715082,1671625555.664,510,120877,63150
61015,10326.455463234917,1671625555.664,510,120877,63150
61016,10326.462648754752,1671625555.664,510,120763,63164
61016,10326.469834274587,1671625555.664,510,120763,63164
61017,10326.477019794422,1671625555.664,510,120887,63140
61017,10326.484205314257,1671625555.664,510,120887,63140
61018,10326.505759228035,1671625555.664,510,120730,63133
61018,10326.51368683069,1671625555.664,510,120730,63133
61019,10326.521614433346,1671625555.664,510,120723,63105
61019,10326.529542036002,1671625555.664,510,120723,63105
61020,10326.537469638657,1671625555.756,510,120762,63119
61020,10326.545397241312,1671625555.756,510,120762,63119
61021,10326.553324843968,1671625555.756,511,120621,63089
61021,10326.561252446623,1671625555.756,511,120621,63089
61022,10326.569180049279,1671625555.756,510,120626,63087
61022,10326.577107651934,1671625555.756,510,120626,63087
61023,10326.58503525459,1671625555.756,510,120570,63090
61023,10326.592962857245,1671625555.756,510,120570,63090
61024,10326.6008904599,1671625555.756,511,120654,63102
61024,10326.608818062556,1671625555.756,511,120654,63102
61025,10326.616745665211,1671625555.756,512,120604,63087
61025,10326.624673267866,1671625555.756,512,120604,63087
61026,10326.632600870522,1671625555.846,509,120662,63105
61026,10326.640528473177,1671625555.846,509,120662,63105
61027,10326.648456075833,1671625555.846,511,120649,63076
61027,10326.656383678488,1671625555.846,511,120649,63076
61028,10326.661087847353,1671625555.846,510,120667,63086
61028,10326.668199590902,1671625555.846,510,120667,63086
61029,10326.675311334451,1671625555.846,509,120600,63104
61029,10326.682423078,1671625555.846,509,120600,63104
61030,10326.68953482155,1671625555.846,510,120713,63105
61030,10326.696646565098,1671625555.846,510,120713,63105
61031,10326.703758308648,1671625555.846,510,120670,63116
61031,10326.710870052197,1671625555.846,510,120670,63116
61032,10326.717981795746,1671625555.934,512,120674,63110
61032,10326.725093539295,1671625555.934,512,120674,63110
61033,10326.732205282844,1671625555.934,510,120533,63073
61033,10326.739317026393,1671625555.934,510,120533,63073
61034,10326.746428769942,1671625555.934,512,120561,63087
61034,10326.753540513491,1671625555.934,512,120561,63087
61035,10326.76065225704,1671625555.934,511,120607,63108
61035,10326.76776400059,1671625555.934,511,120607,63108
61036,10326.774875744139,1671625555.934,511,120642,63117
61036,10326.781987487688,1671625555.934,511,120642,63117
61037,10326.789099231237,1671625555.934,511,120710,63136
61037,10326.796210974786,1671625555.934,511,120710,63136
61038,10326.80916922237,1671625556.041,510,120597,63136
61038,10326.81604753152,1671625556.041,510,120597,63136
61039,10326.82292584067,1671625556.041,512,120636,63125
61039,10326.82980414982,1671625556.041,512,120636,63125
61040,10326.83668245897,1671625556.041,511,120673,63142
61040,10326.84356076812,1671625556.041,511,120673,63142
61041,10326.85043907727,1671625556.041,511,120674,63148
61041,10326.85731738642,1671625556.041,511,120674,63148
61042,10326.86419569557,1671625556.041,511,120741,63153
61042,10326.87107400472,1671625556.041,511,120741,63153
61043,10326.877952313871,1671625556.041,510,120750,63179
61043,10326.884830623021,1671625556.041,510,120750,63179
61044,10326.891708932171,1671625556.131,509,120658,63149
61044,10326.898587241321,1671625556.131,509,120658,63149
61045,10326.905465550471,1671625556.131,510,120828,63188
61045,10326.912343859622,1671625556.131,510,120828,63188
61046,10326.919222168772,1671625556.131,511,120694,63185
61046,10326.926100477922,1671625556.131,511,120694,63185
61047,10326.932978787072,1671625556.131,510,120788,63193
61047,10326.939857096222,1671625556.131,510,120788,63193
61048,10326.976060024595,1671625556.131,510,120730,63161
61048,10326.983127807725,1671625556.131,510,120730,63161
61049,10326.990195590855,1671625556.131,511,120827,63209
61049,10326.997263373985,1671625556.131,511,120827,63209
61050,10327.004331157115,1671625556.22,510,120812,63191
61050,10327.011398940245,1671625556.22,510,120812,63191
61051,10327.018466723375,1671625556.22,510,120771,63208
61051,10327.025534506505,1671625556.22,510,120771,63208
61052,10327.032602289635,1671625556.22,510,120753,63210
61052,10327.039670072765,1671625556.22,510,120753,63210
61053,10327.046737855895,1671625556.22,510,120855,63245
61053,10327.053805639025,1671625556.22,510,120855,63245
61054,10327.060873422155,1671625556.22,510,120847,63236
61054,10327.067941205285,1671625556.22,510,120847,63236
61055,10327.075008988415,1671625556.22,510,120818,63242
61055,10327.082076771545,1671625556.22,510,120818,63242
61056,10327.089144554675,1671625556.312,509,120899,63271
61056,10327.096212337805,1671625556.312,509,120899,63271
61057,10327.103280120935,1671625556.312,510,120770,63234
61057,10327.110347904065,1671625556.312,510,120770,63234
61058,10327.125873473846,1671625556.312,508,120854,63250
61058,10327.132969679267,1671625556.312,508,120854,63250
61059,10327.140065884689,1671625556.312,509,120673,63222
61059,10327.14716209011,1671625556.312,509,120673,63222
61060,10327.154258295532,1671625556.312,509,120613,63214
61060,10327.161354500953,1671625556.312,509,120613,63214
61061,10327.168450706375,1671625556.312,509,120406,63191
61061,10327.175546911796,1671625556.312,509,120406,63191
61062,10327.182643117218,1671625556.405,508,120508,63198
61062,10327.189739322639,1671625556.405,508,120508,63198
61063,10327.19683552806,1671625556.405,508,120361,63177
61063,10327.203931733482,1671625556.405,508,120361,63177
61064,10327.211027938903,1671625556.405,510,120440,63174
61064,10327.218124144325,1671625556.405,510,120440,63174
61065,10327.225220349746,1671625556.405,509,120425,63179
61065,10327.232316555168,1671625556.405,509,120425,63179
61066,10327.23941276059,1671625556.405,509,120413,63139
61066,10327.24650896601,1671625556.405,509,120413,63139
61067,10327.253605171432,1671625556.405,508,120430,63183
61067,10327.260701376854,1671625556.405,508,120430,63183
61068,10327.280780599329,1671625556.509,508,120300,63149
61068,10327.288098948658,1671625556.509,508,120300,63149
61069,10327.295417297988,1671625556.509,508,120243,63121
61069,10327.302735647318,1671625556.509,508,120243,63121
61070,10327.310053996647,1671625556.509,510,120186,63116
61070,10327.317372345977,1671625556.509,510,120186,63116
61071,10327.324690695306,1671625556.509,509,120162,63127
61071,10327.332009044636,1671625556.509,509,120162,63127
61072,10327.339327393966,1671625556.509,509,120300,63136
61072,10327.346645743295,1671625556.509,509,120300,63136
61073,10327.353964092625,1671625556.509,509,120223,63123
61073,10327.361282441954,1671625556.509,509,120223,63123
61074,10327.368600791284,1671625556.604,508,120267,63142
61074,10327.375919140613,1671625556.604,508,120267,63142
61075,10327.383237489943,1671625556.604,509,120267,63134
61075,10327.390555839273,1671625556.604,509,120267,63134
61076,10327.397874188602,1671625556.604,509,120183,63103
61076,10327.405192537932,1671625556.604,509,120183,63103
61077,10327.412510887261,1671625556.604,511,120199,63106
61077,10327.41982923659,1671625556.604,511,120199,63106
61078,10327.447836881294,1671625556.604,510,120118,63099
61078,10327.45531949509,1671625556.604,510,120118,63099
61079,10327.462802108885,1671625556.604,510,120228,63145
61079,10327.47028472268,1671625556.604,510,120228,63145
61080,10327.477767336475,1671625556.709,511,120168,63111
61080,10327.48524995027,1671625556.709,511,120168,63111
61081,10327.492732564066,1671625556.709,510,120175,63132
61081,10327.50021517786,1671625556.709,510,120175,63132
61082,10327.507697791656,1671625556.709,509,120147,63121
61082,10327.515180405451,1671625556.709,509,120147,63121
61083,10327.522663019246,1671625556.709,510,120150,63115
61083,10327.530145633042,1671625556.709,510,120150,63115
61084,10327.537628246837,1671625556.709,510,120110,63109
61084,10327.545110860632,1671625556.709,510,120110,63109
61085,10327.552593474427,1671625556.709,511,120145,63128
61085,10327.560076088223,1671625556.709,511,120145,63128
61086,10327.567558702018,1671625556.791,511,120231,63154
61086,10327.575041315813,1671625556.791,511,120231,63154
61087,10327.582523929608,1671625556.791,510,120184,63140
61087,10327.590006543403,1671625556.791,510,120184,63140
61088,10327.61190679526,1671625556.791,511,120353,63163
61088,10327.618840634588,1671625556.791,511,120353,63163
61089,10327.625774473916,1671625556.791,510,120215,63173
61089,10327.632708313244,1671625556.791,510,120215,63173
61090,10327.639642152571,1671625556.791,510,120246,63165
61090,10327.6465759919,1671625556.791,510,120246,63165
61091,10327.653509831227,1671625556.791,510,120221,63165
61091,10327.660443670555,1671625556.791,510,120221,63165
61092,10327.667377509882,1671625556.881,510,120285,63159
61092,10327.67431134921,1671625556.881,510,120285,63159
61093,10327.681245188538,1671625556.881,509,120319,63192
61093,10327.688179027866,1671625556.881,509,120319,63192
61094,10327.695112867194,1671625556.881,510,120364,63196
61094,10327.702046706521,1671625556.881,510,120364,63196
61095,10327.708980545849,1671625556.881,511,120270,63194
61095,10327.715914385177,1671625556.881,511,120270,63194
61096,10327.722848224505,1671625556.881,511,120381,63208
61096,10327.729782063832,1671625556.881,511,120381,63208
61097,10327.73671590316,1671625556.881,511,120335,63235
61097,10327.743649742488,1671625556.881,511,120335,63235
61098,10327.75627765528,1671625556.979,510,120432,63244
61098,10327.76330925632,1671625556.979,510,120432,63244
61099,10327.770340857358,1671625556.979,511,120386,63223
61099,10327.777372458397,1671625556.979,511,120386,63223
61100,10327.784404059435,1671625556.979,509,120401,63223
61100,10327.791435660474,1671625556.979,509,120401,63223
61101,10327.798467261513,1671625556.979,509,120397,63243
61101,10327.805498862552,1671625556.979,509,120397,63243
61102,10327.81253046359,1671625556.979,509,120363,63272
61102,10327.81956206463,1671625556.979,509,120363,63272
61103,10327.826593665668,1671625556.979,512,120495,63236
61103,10327.833625266707,1671625556.979,512,120495,63236
61104,10327.840656867746,1671625557.075,511,120508,63274
61104,10327.847688468784,1671625557.075,511,120508,63274
61105,10327.854720069823,1671625557.075,511,120521,63285
61105,10327.861751670862,1671625557.075,511,120521,63285
61106,10327.8687832719,1671625557.075,511,120570,63286
61106,10327.87581487294,1671625557.075,511,120570,63286
61107,10327.882846473978,1671625557.075,510,120582,63285
61107,10327.889878075017,1671625557.075,510,120582,63285
61108,10327.91872646977,1671625557.075,508,120533,63297
61108,10327.92626611645,1671625557.075,508,120533,63297
61109,10327.93380576313,1671625557.075,510,120603,63328
61109,10327.94134540981,1671625557.075,510,120603,63328
61110,10327.94888505649,1671625557.149,510,120637,63311
61110,10327.95642470317,1671625557.149,510,120637,63311
61111,10327.96396434985,1671625557.149,509,120614,63339
61111,10327.97150399653,1671625557.149,509,120614,63339
61112,10327.97904364321,1671625557.149,510,120677,63357
61112,10327.98658328989,1671625557.149,510,120677,63357
61113,10327.99412293657,1671625557.149,511,120720,63321
61113,10328.00166258325,1671625557.149,511,120720,63321
61114,10328.00920222993,1671625557.149,510,120625,63358
61114,10328.01674187661,1671625557.149,510,120625,63358
61115,10328.02428152329,1671625557.149,511,120709,63358
61115,10328.03182116997,1671625557.149,511,120709,63358
61116,10328.03936081665,1671625557.257,510,120705,63375
61116,10328.04690046333,1671625557.257,510,120705,63375
61117,10328.05444011001,1671625557.257,509,120762,63350
61117,10328.06197975669,1671625557.257,509,120762,63350
61118,10328.060882443957,1671625557.257,510,120775,63362
61118,10328.068545694212,1671625557.257,510,120775,63362
61119,10328.076208944467,1671625557.257,511,120896,63397
61119,10328.083872194722,1671625557.257,511,120896,63397
61120,10328.091535444977,1671625557.257,509,120863,63388
61120,10328.099198695232,1671625557.257,509,120863,63388
61121,10328.106861945487,1671625557.257,511,120888,63417
61121,10328.114525195742,1671625557.257,511,120888,63417
61122,10328.122188445997,1671625557.347,509,120750,63365
61122,10328.129851696252,1671625557.347,509,120750,63365
61123,10328.137514946508,1671625557.347,509,120568,63372
61123,10328.145178196763,1671625557.347,509,120568,63372
61124,10328.152841447018,1671625557.347,510,120475,63337
61124,10328.160504697273,1671625557.347,510,120475,63337
61125,10328.168167947528,1671625557.347,510,120517,63339
61125,10328.175831197783,1671625557.347,510,120517,63339
61126,10328.183494448038,1671625557.347,510,120378,63307
61126,10328.191157698293,1671625557.347,510,120378,63307
61127,10328.198820948548,1671625557.347,511,120397,63299
61127,10328.206484198803,1671625557.347,511,120397,63299
61128,10328.221888141217,1671625557.435,509,120351,63308
61128,10328.228883953754,1671625557.435,509,120351,63308
61129,10328.235879766291,1671625557.435,509,120432,63309
61129,10328.242875578828,1671625557.435,509,120432,63309
61130,10328.249871391365,1671625557.435,508,120173,63295
61130,10328.256867203901,1671625557.435,508,120173,63295
61131,10328.263863016438,1671625557.435,509,120293,63295
61131,10328.270858828975,1671625557.435,509,120293,63295
61132,10328.277854641512,1671625557.435,508,120367,63296
61132,10328.284850454049,1671625557.435,508,120367,63296
61133,10328.291846266586,1671625557.435,507,120248,63264
61133,10328.298842079123,1671625557.435,507,120248,63264
61134,10328.30583789166,1671625557.539,509,120220,63266
61134,10328.312833704196,1671625557.539,509,120220,63266
61135,10328.319829516733,1671625557.539,509,120169,63232
61135,10328.32682532927,1671625557.539,509,120169,63232
61136,10328.333821141807,1671625557.539,509,120059,63213
61136,10328.340816954344,1671625557.539,509,120059,63213
61137,10328.34781276688,1671625557.539,511,120109,63235
61137,10328.354808579417,1671625557.539,511,120109,63235
61138,10328.380532839306,1671625557.539,509,120092,63240
61138,10328.388608010973,1671625557.539,509,120092,63240
61139,10328.39668318264,1671625557.539,508,120122,63217
61139,10328.404758354307,1671625557.539,508,120122,63217
61140,10328.412833525974,1671625557.631,509,120150,63233
61140,10328.42090869764,1671625557.631,509,120150,63233
61141,10328.428983869308,1671625557.631,509,120189,63238
61141,10328.437059040974,1671625557.631,509,120189,63238
61142,10328.445134212641,1671625557.631,509,120161,63232
61142,10328.453209384308,1671625557.631,509,120161,63232
61143,10328.461284555975,1671625557.631,510,120090,63234
61143,10328.469359727642,1671625557.631,510,120090,63234
61144,10328.477434899309,1671625557.631,510,120085,63205
61144,10328.485510070976,1671625557.631,510,120085,63205
61145,10328.493585242642,1671625557.631,511,120044,63206
61145,10328.50166041431,1671625557.631,511,120044,63206
61146,10328.509735585976,1671625557.723,509,120060,63223
61146,10328.517810757643,1671625557.723,509,120060,63223
61147,10328.52588592931,1671625557.723,510,120107,63234
61147,10328.533961100977,1671625557.723,510,120107,63234
61148,10328.536803467116,1671625557.723,509,120177,63241
61148,10328.543971742542,1671625557.723,509,120177,63241
61149,10328.551140017968,1671625557.723,510,120153,63231
61149,10328.558308293394,1671625557.723,510,120153,63231
61150,10328.56547656882,1671625557.723,510,120153,63220
61150,10328.572644844246,1671625557.723,510,120153,63220
61151,10328.579813119672,1671625557.723,510,120044,63225
61151,10328.586981395098,1671625557.723,510,120044,63225
61152,10328.594149670524,1671625557.81,509,120233,63229
61152,10328.60131794595,1671625557.81,509,120233,63229
61153,10328.608486221376,1671625557.81,509,120241,63251
61153,10328.615654496802,1671625557.81,509,120241,63251
61154,10328.622822772228,1671625557.81,509,120214,63236
61154,10328.629991047654,1671625557.81,509,120214,63236
61155,10328.63715932308,1671625557.81,509,120175,63236
61155,10328.644327598506,1671625557.81,509,120175,63236
61156,10328.651495873932,1671625557.81,511,120189,63224
61156,10328.658664149358,1671625557.81,511,120189,63224
61157,10328.665832424784,1671625557.81,511,120184,63231
61157,10328.67300070021,1671625557.81,511,120184,63231
61158,10328.685359414405,1671625557.964,510,120263,63238
61158,10328.692228571914,1671625557.964,510,120263,63238
61159,10328.699097729423,1671625557.964,510,120219,63237
61159,10328.705966886931,1671625557.964,510,120219,63237
61160,10328.71283604444,1671625557.964,510,120328,63252
61160,10328.71970520195,1671625557.964,510,120328,63252
61161,10328.726574359458,1671625557.964,509,120334,63289
61161,10328.733443516967,1671625557.964,509,120334,63289
61162,10328.740312674476,1671625557.964,508,120217,63242
61162,10328.747181831985,1671625557.964,508,120217,63242
61163,10328.754050989493,1671625557.964,509,120241,63254
61163,10328.760920147002,1671625557.964,509,120241,63254
61164,10328.767789304511,1671625558.018,510,120293,63270
61164,10328.77465846202,1671625558.018,510,120293,63270
61165,10328.781527619529,1671625558.018,509,120370,63283
61165,10328.788396777038,1671625558.018,509,120370,63283
61166,10328.795265934546,1671625558.018,510,120333,63276
61166,10328.802135092055,1671625558.018,510,120333,63276
61167,10328.809004249564,1671625558.018,510,120381,63299
61167,10328.815873407073,1671625558.018,510,120381,63299
61168,10328.872533560834,1671625558.018,510,120474,63312
61168,10328.877202517651,1671625558.018,510,120474,63312
61169,10328.881871474468,1671625558.018,510,120425,63306
61169,10328.886540431286,1671625558.018,510,120425,63306
61170,10328.891209388103,1671625558.096,509,120442,63319
61170,10328.89587834492,1671625558.096,509,120442,63319
61171,10328.900547301737,1671625558.096,508,120384,63315
61171,10328.905216258554,1671625558.096,508,120384,63315
61172,10328.909885215371,1671625558.096,509,120491,63337
61172,10328.914554172188,1671625558.096,509,120491,63337
61173,10328.919223129005,1671625558.096,510,120414,63328
61173,10328.923892085822,1671625558.096,510,120414,63328
61174,10328.92856104264,1671625558.096,511,120480,63336
61174,10328.933229999457,1671625558.096,511,120480,63336
61175,10328.937898956274,1671625558.096,511,120450,63321
61175,10328.94256791309,1671625558.096,511,120450,63321
61176,10328.947236869908,1671625558.186,509,120488,63383
61176,10328.951905826725,1671625558.186,509,120488,63383
61177,10328.956574783542,1671625558.186,510,120624,63357
61177,10328.96124374036,1671625558.186,510,120624,63357
61178,10329.000723543553,1671625558.186,510,120462,63347
61178,10329.00743797078,1671625558.186,510,120462,63347
61179,10329.014152398007,1671625558.186,510,120629,63371
61179,10329.020866825234,1671625558.186,510,120629,63371
61180,10329.027581252461,1671625558.186,509,120624,63381
61180,10329.034295679689,1671625558.186,509,120624,63381
61181,10329.041010106916,1671625558.186,510,120753,63396
61181,10329.047724534143,1671625558.186,510,120753,63396
61182,10329.05443896137,1671625558.284,510,120693,63379
61182,10329.061153388597,1671625558.284,510,120693,63379
61183,10329.067867815824,1671625558.284,510,120648,63374
61183,10329.07458224305,1671625558.284,510,120648,63374
61184,10329.081296670278,1671625558.284,510,120752,63401
61184,10329.088011097505,1671625558.284,510,120752,63401
61185,10329.094725524732,1671625558.284,510,120658,63416
61185,10329.101439951959,1671625558.284,510,120658,63416
61186,10329.108154379186,1671625558.284,509,120751,63418
61186,10329.114868806413,1671625558.284,509,120751,63418
61187,10329.12158323364,1671625558.284,511,120710,63399
61187,10329.128297660867,1671625558.284,511,120710,63399
61188,10329.16012739479,1671625558.381,510,120583,63392
61188,10329.167818158938,1671625558.381,510,120583,63392
61189,10329.175508923085,1671625558.381,510,120524,63376
61189,10329.183199687232,1671625558.381,510,120524,63376
61190,10329.190890451378,1671625558.381,510,120362,63332
61190,10329.198581215525,1671625558.381,510,120362,63332
61191,10329.206271979672,1671625558.381,511,120380,63353
61191,10329.21396274382,1671625558.381,511,120380,63353
61192,10329.221653507966,1671625558.381,511,120320,63352
61192,10329.229344272113,1671625558.381,511,120320,63352
61193,10329.23703503626,1671625558.381,511,120283,63320
61193,10329.244725800407,1671625558.381,511,120283,63320
61194,10329.252416564554,1671625558.471,509,120221,63341
61194,10329.2601073287,1671625558.471,509,120221,63341
61195,10329.267798092847,1671625558.471,509,120349,63335
61195,10329.275488856994,1671625558.471,509,120349,63335
61196,10329.283179621141,1671625558.471,509,120230,63306
61196,10329.290870385288,1671625558.471,509,120230,63306
61197,10329.298561149435,1671625558.471,509,120177,63314
61197,10329.306251913582,1671625558.471,509,120177,63314
61198,10329.316146248078,1671625558.471,511,120234,63303
61198,10329.323243344179,1671625558.471,511,120234,63303
61199,10329.33034044028,1671625558.471,511,120177,63288
61199,10329.33743753638,1671625558.471,511,120177,63288
61200,10329.34453463248,1671625558.569,510,120192,63280
61200,10329.351631728581,1671625558.569,510,120192,63280
61201,10329.358728824682,1671625558.569,510,120135,63259
61201,10329.365825920782,1671625558.569,510,120135,63259
61202,10329.372923016883,1671625558.569,509,120241,63259
61202,10329.380020112983,1671625558.569,509,120241,63259
61203,10329.387117209084,1671625558.569,509,120260,63278
61203,10329.394214305185,1671625558.569,509,120260,63278
61204,10329.401311401285,1671625558.569,509,120251,63272
61204,10329.408408497386,1671625558.569,509,120251,63272
61205,10329.415505593486,1671625558.569,509,120206,63268
61205,10329.422602689587,1671625558.569,509,120206,63268
61206,10329.429699785687,1671625558.666,510,120143,63256
61206,10329.436796881788,1671625558.666,510,120143,63256
61207,10329.443893977888,1671625558.666,509,120102,63266
61207,10329.450991073989,1671625558.666,509,120102,63266
61208,10329.476979286852,1671625558.666,510,120075,63228
61208,10329.48458151296,1671625558.666,510,120075,63228
61209,10329.492183739067,1671625558.666,510,120091,63215
61209,10329.499785965174,1671625558.666,510,120091,63215
61210,10329.507388191281,1671625558.666,509,120102,63234
61210,10329.514990417389,1671625558.666,509,120102,63234
61211,10329.522592643496,1671625558.666,510,120087,63227
61211,10329.530194869603,1671625558.666,510,120087,63227
61212,10329.53779709571,1671625558.757,510,120126,63232
61212,10329.545399321818,1671625558.757,510,120126,63232
61213,10329.553001547925,1671625558.757,509,120077,63207
61213,10329.560603774033,1671625558.757,509,120077,63207
61214,10329.56820600014,1671625558.757,510,120093,63226
61214,10329.575808226247,1671625558.757,510,120093,63226
61215,10329.583410452355,1671625558.757,510,120065,63216
61215,10329.591012678462,1671625558.757,510,120065,63216
61216,10329.59861490457,1671625558.757,511,120167,63242
61216,10329.606217130677,1671625558.757,511,120167,63242
61217,10329.613819356784,1671625558.757,509,120080,63223
61217,10329.621421582891,1671625558.757,509,120080,63223
61218,10329.631875171504,1671625558.851,508,120137,63236
61218,10329.63897127475,1671625558.851,508,120137,63236
61219,10329.646067377995,1671625558.851,510,120226,63250
61219,10329.65316348124,1671625558.851,510,120226,63250
61220,10329.660259584485,1671625558.851,510,120089,63220
61220,10329.66735568773,1671625558.851,510,120089,63220
61221,10329.674451790976,1671625558.851,509,120187,63248
61221,10329.68154789422,1671625558.851,509,120187,63248
61222,10329.688643997466,1671625558.851,510,120264,63241
61222,10329.695740100711,1671625558.851,510,120264,63241
61223,10329.702836203956,1671625558.851,510,120232,63222
61223,10329.709932307202,1671625558.851,510,120232,63222
61224,10329.717028410447,1671625558.936,509,120327,63250
61224,10329.724124513692,1671625558.936,509,120327,63250
61225,10329.731220616937,1671625558.936,510,120255,63227
61225,10329.738316720182,1671625558.936,510,120255,63227
61226,10329.745412823428,1671625558.936,510,120191,63234
61226,10329.752508926673,1671625558.936,510,120191,63234
61227,10329.759605029918,1671625558.936,510,120300,63245
61227,10329.766701133163,1671625558.936,510,120300,63245
61228,10329.782237348682,1671625558.936,508,120384,63280
61228,10329.788870476643,1671625558.936,508,120384,63280
61229,10329.795503604604,1671625558.936,511,120223,63240
61229,10329.802136732565,1671625558.936,511,120223,63240
61230,10329.808769860527,1671625559.026,510,120312,63257
61230,10329.815402988488,1671625559.026,510,120312,63257
61231,10329.82203611645,1671625559.026,510,120366,63279
61231,10329.82866924441,1671625559.026,510,120366,63279
61232,10329.835302372372,1671625559.026,512,120401,63278
61232,10329.841935500333,1671625559.026,512,120401,63278
61233,10329.848568628295,1671625559.026,510,120453,63264
61233,10329.855201756256,1671625559.026,510,120453,63264
61234,10329.861834884217,1671625559.026,509,120423,63290
61234,10329.868468012179,1671625559.026,509,120423,63290
61235,10329.87510114014,1671625559.026,509,120460,63277
61235,10329.881734268101,1671625559.026,509,120460,63277
61236,10329.888367396063,1671625559.134,510,120565,63303
61236,10329.895000524024,1671625559.134,510,120565,63303
61237,10329.901633651985,1671625559.134,509,120389,63289
61237,10329.908266779947,1671625559.134,509,120389,63289
61238,10329.937921867633,1671625559.134,509,120525,63306
61238,10329.945983716985,1671625559.134,509,120525,63306
61239,10329.954045566337,1671625559.134,510,120528,63305
61239,10329.96210741569,1671625559.134,510,120528,63305
61240,10329.970169265041,1671625559.134,512,120584,63320
61240,10329.978231114394,1671625559.134,512,120584,63320
61241,10329.986292963746,1671625559.134,510,120623,63311
61241,10329.994354813098,1671625559.134,510,120623,63311
61242,10330.00241666245,1671625559.221,510,120586,63306
61242,10330.010478511802,1671625559.221,510,120586,63306
61243,10330.018540361154,1671625559.221,510,120604,63302
61243,10330.026602210506,1671625559.221,510,120604,63302
61244,10330.034664059858,1671625559.221,510,120628,63333
61244,10330.04272590921,1671625559.221,510,120628,63333
61245,10330.050787758562,1671625559.221,509,120643,63327
61245,10330.058849607914,1671625559.221,509,120643,63327
61246,10330.066911457267,1671625559.221,510,120398,63305
61246,10330.074973306619,1671625559.221,510,120398,63305
61247,10330.08303515597,1671625559.221,511,120428,63296
61247,10330.091097005323,1671625559.221,511,120428,63296
61248,10330.095487093493,1671625559.319,509,120303,63280
61248,10330.102254382758,1671625559.319,509,120303,63280
61249,10330.109021672024,1671625559.319,511,120243,63250
61249,10330.11578896129,1671625559.319,511,120243,63250
61250,10330.122556250555,1671625559.319,509,120177,63261
61250,10330.12932353982,1671625559.319,509,120177,63261
61251,10330.136090829086,1671625559.319,509,120168,63235
61251,10330.142858118352,1671625559.319,509,120168,63235
61252,10330.149625407617,1671625559.319,510,120070,63211
61252,10330.156392696883,1671625559.319,510,120070,63211
61253,10330.163159986148,1671625559.319,510,120121,63208
61253,10330.169927275414,1671625559.319,510,120121,63208
61254,10330.17669456468,1671625559.416,510,120156,63224
61254,10330.183461853945,1671625559.416,510,120156,63224
61255,10330.19022914321,1671625559.416,510,120077,63220
61255,10330.196996432476,1671625559.416,510,120077,63220
61256,10330.203763721742,1671625559.416,512,120040,63192
61256,10330.210531011007,1671625559.416,512,120040,63192
61257,10330.217298300273,1671625559.416,510,120095,63202
61257,10330.224065589538,1671625559.416,510,120095,63202
61258,10330.259473987533,1671625559.416,511,120019,63174
61258,10330.26707241741,1671625559.416,511,120019,63174
61259,10330.274670847286,1671625559.416,511,120024,63190
61259,10330.282269277162,1671625559.416,511,120024,63190
61260,10330.289867707039,1671625559.507,511,120026,63171
61260,10330.297466136915,1671625559.507,511,120026,63171
61261,10330.305064566792,1671625559.507,509,120004,63178
61261,10330.312662996668,1671625559.507,509,120004,63178
61262,10330.320261426545,1671625559.507,511,120008,63181
61262,10330.327859856421,1671625559.507,511,120008,63181
61263,10330.335458286298,1671625559.507,509,120029,63165
61263,10330.343056716174,1671625559.507,509,120029,63165
61264,10330.35065514605,1671625559.507,510,120068,63184
61264,10330.358253575927,1671625559.507,510,120068,63184
61265,10330.365852005803,1671625559.507,510,120046,63188
61265,10330.37345043568,1671625559.507,510,120046,63188
61266,10330.381048865556,1671625559.597,508,120035,63167
61266,10330.388647295433,1671625559.597,508,120035,63167
61267,10330.39624572531,1671625559.597,509,120074,63182
61267,10330.403844155186,1671625559.597,509,120074,63182
61268,10330.412104460192,1671625559.597,511,119998,63152
61268,10330.419127733774,1671625559.597,511,119998,63152
61269,10330.426151007356,1671625559.597,509,120066,63177
61269,10330.433174280937,1671625559.597,509,120066,63177
61270,10330.440197554519,1671625559.597,510,120037,63158
61270,10330.4472208281,1671625559.597,510,120037,63158
61271,10330.454244101682,1671625559.597,510,120028,63125
61271,10330.461267375264,1671625559.597,510,120028,63125
61272,10330.468290648845,1671625559.685,509,120088,63153
61272,10330.475313922427,1671625559.685,509,120088,63153
61273,10330.482337196008,1671625559.685,509,120049,63171
61273,10330.48936046959,1671625559.685,509,120049,63171
61274,10330.496383743171,1671625559.685,508,120114,63175
61274,10330.503407016753,1671625559.685,508,120114,63175
61275,10330.510430290335,1671625559.685,511,119998,63130
61275,10330.517453563916,1671625559.685,511,119998,63130
61276,10330.524476837498,1671625559.685,510,120066,63160
61276,10330.53150011108,1671625559.685,510,120066,63160
61277,10330.538523384661,1671625559.685,509,120244,63183
61277,10330.545546658243,1671625559.685,509,120244,63183
61278,10330.559599969793,1671625559.79,510,120111,63174
61278,10330.56648643866,1671625559.79,510,120111,63174
61279,10330.573372907527,1671625559.79,510,120206,63161
61279,10330.580259376395,1671625559.79,510,120206,63161
61280,10330.587145845262,1671625559.79,512,120161,63168
61280,10330.59403231413,1671625559.79,512,120161,63168
61281,10330.600918782997,1671625559.79,509,120230,63172
61281,10330.607805251864,1671625559.79,509,120230,63172
61282,10330.614691720732,1671625559.79,508,120329,63208
61282,10330.621578189599,1671625559.79,508,120329,63208
61283,10330.628464658466,1671625559.79,510,120205,63150
61283,10330.635351127334,1671625559.79,510,120205,63150
61284,10330.642237596201,1671625559.879,510,120318,63188
61284,10330.649124065068,1671625559.879,510,120318,63188
61285,10330.656010533936,1671625559.879,510,120299,63164
61285,10330.662897002803,1671625559.879,510,120299,63164
61286,10330.66978347167,1671625559.879,511,120294,63184
61286,10330.676669940538,1671625559.879,511,120294,63184
61287,10330.683556409405,1671625559.879,510,120340,63187
61287,10330.690442878273,1671625559.879,510,120340,63187
61288,10330.724801305842,1671625559.879,511,120320,63187
61288,10330.731885340376,1671625559.879,511,120320,63187
61289,10330.73896937491,1671625559.879,509,120364,63201
61289,10330.746053409444,1671625559.879,509,120364,63201
61290,10330.753137443979,1671625559.972,509,120454,63226
61290,10330.760221478513,1671625559.972,509,120454,63226
61291,10330.767305513047,1671625559.972,509,120459,63215
61291,10330.774389547581,1671625559.972,509,120459,63215
61292,10330.781473582116,1671625559.972,510,120496,63220
61292,10330.78855761665,1671625559.972,510,120496,63220
61293,10330.795641651184,1671625559.972,510,120473,63201
61293,10330.802725685719,1671625559.972,510,120473,63201
61294,10330.809809720253,1671625559.972,510,120500,63223
61294,10330.816893754787,1671625559.972,510,120500,63223
61295,10330.823977789321,1671625559.972,510,120473,63216
61295,10330.831061823856,1671625559.972,510,120473,63216
61296,10330.83814585839,1671625560.061,509,120527,63242
61296,10330.845229892924,1671625560.061,509,120527,63242
61297,10330.852313927458,1671625560.061,510,120491,63218
61297,10330.859397961993,1671625560.061,510,120491,63218
61298,10330.876751329852,1671625560.061,512,120545,63219
61298,10330.883753821532,1671625560.061,512,120545,63219
61299,10330.890756313212,1671625560.061,509,120650,63257
61299,10330.897758804893,1671625560.061,509,120650,63257
61300,10330.904761296573,1671625560.061,509,120653,63249
61300,10330.911763788254,1671625560.061,509,120653,63249
61301,10330.918766279934,1671625560.061,509,120705,63282
61301,10330.925768771614,1671625560.061,509,120705,63282
61302,10330.932771263295,1671625560.171,511,120732,63263
61302,10330.939773754975,1671625560.171,511,120732,63263
61303,10330.946776246656,1671625560.171,511,120770,63291
61303,10330.953778738336,1671625560.171,511,120770,63291
61304,10330.960781230016,1671625560.171,510,120691,63284
61304,10330.967783721697,1671625560.171,510,120691,63284
61305,10330.974786213377,1671625560.171,509,120762,63304
61305,10330.981788705058,1671625560.171,509,120762,63304
61306,10330.988791196738,1671625560.171,510,120732,63261
61306,10330.995793688418,1671625560.171,510,120732,63261
61307,10331.002796180099,1671625560.171,509,120772,63291
61307,10331.00979867178,1671625560.171,509,120772,63291
61308,10331.048352546415,1671625560.257,508,120574,63254
61308,10331.056979860297,1671625560.257,508,120574,63254
61309,10331.06560717418,1671625560.257,508,120499,63249
61309,10331.074234488062,1671625560.257,508,120499,63249
61310,10331.082861801944,1671625560.257,509,120408,63243
61310,10331.091489115826,1671625560.257,509,120408,63243
61311,10331.100116429709,1671625560.257,510,120256,63202
61311,10331.10874374359,1671625560.257,510,120256,63202
61312,10331.117371057473,1671625560.257,510,120194,63185
61312,10331.125998371355,1671625560.257,510,120194,63185
61313,10331.134625685238,1671625560.257,509,120249,63178
61313,10331.14325299912,1671625560.257,509,120249,63178
61314,10331.151880313002,1671625560.347,509,120101,63164
61314,10331.160507626884,1671625560.347,509,120101,63164
61315,10331.169134940767,1671625560.347,508,120136,63186
61315,10331.177762254649,1671625560.347,508,120136,63186
61316,10331.186389568531,1671625560.347,508,120218,63182
61316,10331.195016882413,1671625560.347,508,120218,63182
61317,10331.203644196295,1671625560.347,510,120154,63159
61317,10331.212271510178,1671625560.347,510,120154,63159
61318,10331.192528978927,1671625560.347,510,120061,63136
61318,10331.199544712388,1671625560.347,510,120061,63136
61319,10331.20656044585,1671625560.347,510,120145,63168
61319,10331.21357617931,1671625560.347,510,120145,63168
61320,10331.220591912772,1671625560.434,511,120104,63147
61320,10331.227607646233,1671625560.434,511,120104,63147
61321,10331.234623379694,1671625560.434,510,120126,63140
61321,10331.241639113156,1671625560.434,510,120126,63140
61322,10331.248654846617,1671625560.434,509,120038,63114
61322,10331.255670580078,1671625560.434,509,120038,63114
61323,10331.26268631354,1671625560.434,510,120115,63144
61323,10331.269702047,1671625560.434,510,120115,63144
61324,10331.276717780462,1671625560.434,510,119978,63107
61324,10331.283733513923,1671625560.434,510,119978,63107
61325,10331.290749247384,1671625560.434,511,120060,63113
61325,10331.297764980845,1671625560.434,511,120060,63113
61326,10331.304780714307,1671625560.525,510,120045,63121
61326,10331.311796447768,1671625560.525,510,120045,63121
61327,10331.318812181229,1671625560.525,509,119970,63104
61327,10331.32582791469,1671625560.525,509,119970,63104
61328,10331.339275525774,1671625560.525,510,120023,63095
61328,10331.346268649859,1671625560.525,510,120023,63095
61329,10331.353261773944,1671625560.525,509,120023,63106
61329,10331.360254898029,1671625560.525,509,120023,63106
61330,10331.367248022114,1671625560.525,509,119965,63076
61330,10331.374241146199,1671625560.525,509,119965,63076
61331,10331.381234270284,1671625560.525,509,119943,63074
61331,10331.38822739437,1671625560.525,509,119943,63074
61332,10331.395220518454,1671625560.639,510,120064,63079
61332,10331.40221364254,1671625560.639,510,120064,63079
61333,10331.409206766624,1671625560.639,510,119986,63092
61333,10331.41619989071,1671625560.639,510,119986,63092
61334,10331.423193014794,1671625560.639,511,119941,63067
61334,10331.43018613888,1671625560.639,511,119941,63067
61335,10331.437179262964,1671625560.639,510,120038,63050
61335,10331.44417238705,1671625560.639,510,120038,63050
61336,10331.451165511135,1671625560.639,509,120013,63070
61336,10331.45815863522,1671625560.639,509,120013,63070
61337,10331.465151759305,1671625560.639,510,120041,63078
61337,10331.47214488339,1671625560.639,510,120041,63078
61338,10331.5170565927,1671625560.736,508,120056,63081
61338,10331.525998665704,1671625560.736,508,120056,63081
61339,10331.534940738708,1671625560.736,507,120133,63098
61339,10331.543882811711,1671625560.736,507,120133,63098
61340,10331.552824884715,1671625560.736,509,120181,63085
61340,10331.561766957719,1671625560.736,509,120181,63085
61341,10331.570709030722,1671625560.736,509,120085,63083
61341,10331.579651103726,1671625560.736,509,120085,63083
61342,10331.58859317673,1671625560.736,510,120228,63112
61342,10331.597535249733,1671625560.736,510,120228,63112
61343,10331.606477322737,1671625560.736,510,120235,63108
61343,10331.61541939574,1671625560.736,510,120235,63108
61344,10331.624361468745,1671625560.813,509,120178,63079
61344,10331.633303541748,1671625560.813,509,120178,63079
61345,10331.642245614752,1671625560.813,510,120259,63100
61345,10331.651187687756,1671625560.813,510,120259,63100
61346,10331.66012976076,1671625560.813,510,120293,63103
61346,10331.669071833763,1671625560.813,510,120293,63103
61347,10331.678013906767,1671625560.813,509,120291,63098
61347,10331.68695597977,1671625560.813,509,120291,63098
61348,10331.661413092968,1671625560.813,511,120264,63078
61348,10331.66753233926,1671625560.813,511,120264,63078
61349,10331.67365158555,1671625560.813,511,120289,63083
61349,10331.67977083184,1671625560.813,511,120289,63083
61350,10331.685890078132,1671625560.914,510,120332,63103
61350,10331.692009324423,1671625560.914,510,120332,63103
61351,10331.698128570713,1671625560.914,511,120383,63129
61351,10331.704247817004,1671625560.914,511,120383,63129
61352,10331.710367063295,1671625560.914,510,120348,63116
61352,10331.716486309586,1671625560.914,510,120348,63116
61353,10331.722605555877,1671625560.914,508,120417,63117
61353,10331.728724802168,1671625560.914,508,120417,63117
61354,10331.734844048458,1671625560.914,509,120342,63078
61354,10331.74096329475,1671625560.914,509,120342,63078
61355,10331.74708254104,1671625560.914,509,120397,63127
61355,10331.75320178733,1671625560.914,509,120397,63127
61356,10331.759321033622,1671625561.006,510,120482,63115
61356,10331.765440279913,1671625561.006,510,120482,63115
61357,10331.771559526203,1671625561.006,509,120398,63116
61357,10331.777678772494,1671625561.006,509,120398,63116
61358,10331.819969728269,1671625561.006,510,120518,63142
61358,10331.827354613502,1671625561.006,510,120518,63142
61359,10331.834739498736,1671625561.006,511,120495,63119
61359,10331.84212438397,1671625561.006,511,120495,63119
61360,10331.849509269203,1671625561.006,510,120475,63121
61360,10331.856894154436,1671625561.006,510,120475,63121
61361,10331.86427903967,1671625561.006,509,120477,63121
61361,10331.871663924903,1671625561.006,509,120477,63121
61362,10331.879048810137,1671625561.097,510,120541,63147
61362,10331.88643369537,1671625561.097,510,120541,63147
61363,10331.893818580604,1671625561.097,509,120564,63138
61363,10331.901203465837,1671625561.097,509,120564,63138
61364,10331.90858835107,1671625561.097,510,120648,63157
61364,10331.915973236304,1671625561.097,510,120648,63157
61365,10331.923358121538,1671625561.097,511,120709,63163
61365,10331.930743006771,1671625561.097,511,120709,63163
61366,10331.938127892005,1671625561.097,509,120726,63193
61366,10331.945512777238,1671625561.097,509,120726,63193
61367,10331.952897662472,1671625561.097,512,120693,63163
61367,10331.960282547705,1671625561.097,512,120693,63163
61368,10331.972723534289,1671625561.202,508,120719,63188
61368,10331.979892485106,1671625561.202,508,120719,63188
61369,10331.987061435922,1671625561.202,509,120736,63182
61369,10331.99423038674,1671625561.202,509,120736,63182
61370,10332.001399337556,1671625561.202,510,120879,63193
61370,10332.008568288373,1671625561.202,510,120879,63193
61371,10332.01573723919,1671625561.202,508,120748,63196
61371,10332.022906190006,1671625561.202,508,120748,63196
61372,10332.030075140823,1671625561.202,511,120860,63211
61372,10332.03724409164,1671625561.202,511,120860,63211
61373,10332.044413042457,1671625561.202,510,120780,63204
61373,10332.051581993273,1671625561.202,510,120780,63204
61374,10332.05875094409,1671625561.282,510,120557,63163
61374,10332.065919894907,1671625561.282,510,120557,63163
61375,10332.073088845724,1671625561.282,510,120456,63118
61375,10332.08025779654,1671625561.282,510,120456,63118
61376,10332.087426747357,1671625561.282,510,120359,63129
61376,10332.094595698174,1671625561.282,510,120359,63129
61377,10332.10176464899,1671625561.282,509,120257,63110
61377,10332.108933599808,1671625561.282,509,120257,63110
61378,10332.129908314062,1671625561.282,509,120202,63119
61378,10332.13629295254,1671625561.282,509,120202,63119
61379,10332.142677591019,1671625561.282,509,120179,63097
61379,10332.149062229497,1671625561.282,509,120179,63097
61380,10332.155446867975,1671625561.384,512,120131,63091
61380,10332.161831506453,1671625561.384,512,120131,63091
61381,10332.168216144932,1671625561.384,512,120098,63040
61381,10332.17460078341,1671625561.384,512,120098,63040
61382,10332.180985421888,1671625561.384,511,120064,63060
61382,10332.187370060366,1671625561.384,511,120064,63060
61383,10332.193754698845,1671625561.384,510,120118,63031
61383,10332.200139337323,1671625561.384,510,120118,63031
61384,10332.206523975801,1671625561.384,510,120066,63035
61384,10332.21290861428,1671625561.384,510,120066,63035
61385,10332.219293252758,1671625561.384,509,120031,63029
61385,10332.225677891236,1671625561.384,509,120031,63029
61386,10332.232062529714,1671625561.47,511,120029,63026
61386,10332.238447168193,1671625561.47,511,120029,63026
61387,10332.24483180667,1671625561.47,510,120050,63018
61387,10332.25121644515,1671625561.47,510,120050,63018
61388,10332.288320593558,1671625561.47,511,120065,63022
61388,10332.295399529145,1671625561.47,511,120065,63022
61389,10332.302478464731,1671625561.47,511,120071,63021
61389,10332.309557400318,1671625561.47,511,120071,63021
61390,10332.316636335905,1671625561.47,511,119996,63020
61390,10332.323715271492,1671625561.47,511,119996,63020
61391,10332.330794207079,1671625561.47,511,120102,63022
61391,10332.337873142666,1671625561.47,511,120102,63022
61392,10332.344952078252,1671625561.579,511,120084,62991
61392,10332.35203101384,1671625561.579,511,120084,62991
61393,10332.359109949426,1671625561.579,509,120013,63016
61393,10332.366188885013,1671625561.579,509,120013,63016
61394,10332.3732678206,1671625561.579,509,120033,63009
61394,10332.380346756187,1671625561.579,509,120033,63009
61395,10332.387425691773,1671625561.579,510,120040,63009
61395,10332.39450462736,1671625561.579,510,120040,63009
61396,10332.401583562947,1671625561.579,511,119980,62990
61396,10332.408662498534,1671625561.579,511,119980,62990
61397,10332.41574143412,1671625561.579,510,120137,63005
61397,10332.422820369708,1671625561.579,510,120137,63005
61398,10332.455770046654,1671625561.65,509,120022,62988
61398,10332.464238980465,1671625561.65,509,120022,62988
61399,10332.472707914276,1671625561.65,510,120012,62986
61399,10332.481176848087,1671625561.65,510,120012,62986
61400,10332.489645781898,1671625561.65,509,120125,62989
61400,10332.498114715709,1671625561.65,509,120125,62989
61401,10332.50658364952,1671625561.65,510,120017,62984
61401,10332.51505258333,1671625561.65,510,120017,62984
61402,10332.523521517141,1671625561.65,510,120136,62993
61402,10332.531990450952,1671625561.65,510,120136,62993
61403,10332.540459384763,1671625561.65,510,120095,62981
61403,10332.548928318574,1671625561.65,510,120095,62981
61404,10332.557397252385,1671625561.755,511,120126,62987
61404,10332.565866186196,1671625561.755,511,120126,62987
61405,10332.574335120007,1671625561.755,510,120160,63006
61405,10332.582804053818,1671625561.755,510,120160,63006
61406,10332.591272987629,1671625561.755,511,120148,63003
61406,10332.59974192144,1671625561.755,511,120148,63003
61407,10332.608210855251,1671625561.755,511,120057,62981
61407,10332.616679789062,1671625561.755,511,120057,62981
61408,10332.596524894103,1671625561.755,509,120246,63017
61408,10332.604633680467,1671625561.755,509,120246,63017
61409,10332.61274246683,1671625561.755,510,120166,62959
61409,10332.620851253194,1671625561.755,510,120166,62959
61410,10332.628960039558,1671625561.853,509,120233,63005
61410,10332.637068825921,1671625561.853,509,120233,63005
61411,10332.645177612285,1671625561.853,510,120229,62987
61411,10332.653286398649,1671625561.853,510,120229,62987
61412,10332.661395185012,1671625561.853,510,120226,62974
61412,10332.669503971376,1671625561.853,510,120226,62974
61413,10332.67761275774,1671625561.853,511,120281,62989
61413,10332.685721544103,1671625561.853,511,120281,62989
61414,10332.693830330467,1671625561.853,511,120222,62978
61414,10332.70193911683,1671625561.853,511,120222,62978
61415,10332.710047903194,1671625561.853,510,120324,63001
61415,10332.718156689558,1671625561.853,510,120324,63001
61416,10332.726265475922,1671625561.938,511,120317,62999
61416,10332.734374262285,1671625561.938,511,120317,62999
61417,10332.742483048649,1671625561.938,509,120334,62988
61417,10332.750591835013,1671625561.938,509,120334,62988
61418,10332.756316238385,1671625561.938,511,120360,62989
61418,10332.763239547097,1671625561.938,511,120360,62989
61419,10332.77016285581,1671625561.938,510,120422,63021
61419,10332.777086164522,1671625561.938,510,120422,63021
61420,10332.784009473235,1671625561.938,510,120350,63007
61420,10332.790932781947,1671625561.938,510,120350,63007
61421,10332.79785609066,1671625561.938,511,120422,63028
61421,10332.804779399372,1671625561.938,511,120422,63028
61422,10332.811702708084,1671625562.039,510,120406,63010
61422,10332.818626016797,1671625562.039,510,120406,63010
61423,10332.82554932551,1671625562.039,509,120402,62999
61423,10332.832472634222,1671625562.039,509,120402,62999
61424,10332.839395942934,1671625562.039,510,120498,63026
61424,10332.846319251646,1671625562.039,510,120498,63026
61425,10332.853242560359,1671625562.039,510,120453,63006
61425,10332.860165869071,1671625562.039,510,120453,63006
61426,10332.867089177784,1671625562.039,509,120480,62985
61426,10332.874012486496,1671625562.039,509,120480,62985
61427,10332.880935795209,1671625562.039,509,120512,63020
61427,10332.887859103921,1671625562.039,509,120512,63020
61428,10332.915066174599,1671625562.131,509,120516,63018
61428,10332.922951107048,1671625562.131,509,120516,63018
61429,10332.930836039497,1671625562.131,511,120511,63011
61429,10332.938720971946,1671625562.131,511,120511,63011
61430,10332.946605904395,1671625562.131,511,120458,62996
61430,10332.954490836844,1671625562.131,511,120458,62996
61431,10332.962375769293,1671625562.131,511,120614,63034
61431,10332.970260701743,1671625562.131,511,120614,63034
61432,10332.978145634192,1671625562.131,511,120579,63032
61432,10332.98603056664,1671625562.131,511,120579,63032
61433,10332.99391549909,1671625562.131,510,120468,63032
61433,10333.001800431539,1671625562.131,510,120468,63032
61434,10333.009685363988,1671625562.222,511,120411,63015
61434,10333.017570296437,1671625562.222,511,120411,63015
61435,10333.025455228886,1671625562.222,511,120254,62971
61435,10333.033340161335,1671625562.222,511,120254,62971
61436,10333.041225093784,1671625562.222,512,120171,62956
61436,10333.049110026233,1671625562.222,512,120171,62956
61437,10333.056994958682,1671625562.222,511,120094,62937
61437,10333.064879891132,1671625562.222,511,120094,62937
61438,10333.066718746668,1671625562.222,510,120112,62935
61438,10333.07377915375,1671625562.222,510,120112,62935
61439,10333.080839560833,1671625562.222,511,119933,62912
61439,10333.087899967915,1671625562.222,511,119933,62912
61440,10333.094960374998,1671625562.314,509,120097,62948
61440,10333.10202078208,1671625562.314,509,120097,62948
61441,10333.109081189163,1671625562.314,509,120044,62931
61441,10333.116141596245,1671625562.314,509,120044,62931
61442,10333.123202003328,1671625562.314,510,119931,62880
61442,10333.13026241041,1671625562.314,510,119931,62880
61443,10333.137322817493,1671625562.314,511,119999,62897
61443,10333.144383224575,1671625562.314,511,119999,62897
61444,10333.151443631657,1671625562.314,509,119964,62884
61444,10333.15850403874,1671625562.314,509,119964,62884
61445,10333.165564445822,1671625562.314,509,120004,62886
61445,10333.172624852905,1671625562.314,509,120004,62886
61446,10333.179685259987,1671625562.416,510,120030,62884
61446,10333.18674566707,1671625562.416,510,120030,62884
61447,10333.193806074152,1671625562.416,509,120043,62877
61447,10333.200866481235,1671625562.416,509,120043,62877
61448,10333.2235795576,1671625562.416,508,120044,62893
61448,10333.231334319316,1671625562.416,508,120044,62893
61449,10333.239089081033,1671625562.416,510,120012,62877
61449,10333.24684384275,1671625562.416,510,120012,62877
61450,10333.254598604466,1671625562.416,510,120011,62877
61450,10333.262353366183,1671625562.416,510,120011,62877
61451,10333.2701081279,1671625562.416,511,120077,62886
61451,10333.277862889616,1671625562.416,511,120077,62886
61452,10333.285617651332,1671625562.52,511,120010,62865
61452,10333.293372413049,1671625562.52,511,120010,62865
61453,10333.301127174765,1671625562.52,511,119964,62866
61453,10333.308881936482,1671625562.52,511,119964,62866
61454,10333.316636698199,1671625562.52,510,120040,62859
61454,10333.324391459915,1671625562.52,510,120040,62859
61455,10333.332146221632,1671625562.52,511,119969,62844
61455,10333.339900983348,1671625562.52,511,119969,62844
61456,10333.347655745065,1671625562.52,510,120056,62858
61456,10333.355410506781,1671625562.52,510,120056,62858
61457,10333.363165268498,1671625562.52,509,119965,62863
61457,10333.370920030215,1671625562.52,509,119965,62863
61458,10333.396828563835,1671625562.601,509,120029,62856
61458,10333.404979239313,1671625562.601,509,120029,62856
61459,10333.41312991479,1671625562.601,508,120042,62844
61459,10333.421280590268,1671625562.601,508,120042,62844
61460,10333.429431265746,1671625562.601,509,120009,62860
61460,10333.437581941223,1671625562.601,509,120009,62860
61461,10333.445732616701,1671625562.601,510,120056,62863
61461,10333.453883292179,1671625562.601,510,120056,62863
61462,10333.462033967657,1671625562.601,511,119980,62826
61462,10333.470184643134,1671625562.601,511,119980,62826
61463,10333.478335318612,1671625562.601,510,120010,62848
61463,10333.48648599409,1671625562.601,510,120010,62848
61464,10333.494636669568,1671625562.685,509,120132,62864
61464,10333.502787345045,1671625562.685,509,120132,62864
61465,10333.510938020523,1671625562.685,509,120110,62845
61465,10333.519088696,1671625562.685,509,120110,62845
61466,10333.527239371479,1671625562.685,510,120131,62846
61466,10333.535390046956,1671625562.685,510,120131,62846
61467,10333.543540722434,1671625562.685,510,120133,62827
61467,10333.551691397912,1671625562.685,510,120133,62827
61468,10333.53175268974,1671625562.685,510,120154,62844
61468,10333.538330260879,1671625562.685,510,120154,62844
61469,10333.544907832018,1671625562.685,511,120208,62859
61469,10333.551485403157,1671625562.685,511,120208,62859
61470,10333.558062974296,1671625562.778,511,120220,62862
61470,10333.564640545435,1671625562.778,511,120220,62862
61471,10333.571218116575,1671625562.778,511,120209,62860
61471,10333.577795687714,1671625562.778,511,120209,62860
61472,10333.584373258853,1671625562.778,510,120243,62858
61472,10333.590950829992,1671625562.778,510,120243,62858
61473,10333.597528401131,1671625562.778,509,120294,62864
61473,10333.60410597227,1671625562.778,509,120294,62864
61474,10333.61068354341,1671625562.778,509,120328,62865
61474,10333.617261114548,1671625562.778,509,120328,62865
61475,10333.623838685688,1671625562.778,510,120298,62851
61475,10333.630416256827,1671625562.778,510,120298,62851
61476,10333.636993827966,1671625562.88,511,120299,62864
61476,10333.643571399105,1671625562.88,511,120299,62864
61477,10333.650148970244,1671625562.88,510,120316,62849
61477,10333.656726541383,1671625562.88,510,120316,62849
61478,10333.687736156508,1671625562.88,510,120287,62885
61478,10333.695494247124,1671625562.88,510,120287,62885
61479,10333.70325233774,1671625562.88,509,120320,62874
61479,10333.711010428357,1671625562.88,509,120320,62874
61480,10333.718768518973,1671625562.88,510,120397,62868
61480,10333.72652660959,1671625562.88,510,120397,62868
61481,10333.734284700206,1671625562.88,510,120518,62887
61481,10333.742042790822,1671625562.88,510,120518,62887
61482,10333.749800881438,1671625562.973,510,120375,62859
61482,10333.757558972055,1671625562.973,510,120375,62859
61483,10333.76531706267,1671625562.973,510,120433,62872
61483,10333.773075153287,1671625562.973,510,120433,62872
61484,10333.780833243904,1671625562.973,511,120461,62894
61484,10333.78859133452,1671625562.973,511,120461,62894
61485,10333.796349425136,1671625562.973,512,120446,62865
61485,10333.804107515753,1671625562.973,512,120446,62865
61486,10333.811865606369,1671625562.973,511,120425,62880
61486,10333.819623696985,1671625562.973,511,120425,62880
61487,10333.827381787602,1671625562.973,509,120547,62886
61487,10333.835139878218,1671625562.973,509,120547,62886
61488,10333.848032226466,1671625563.06,510,120606,62905
61488,10333.855278189856,1671625563.06,510,120606,62905
61489,10333.862524153246,1671625563.06,509,120468,62887
61489,10333.869770116637,1671625563.06,509,120468,62887
61490,10333.877016080027,1671625563.06,509,120421,62888
61490,10333.884262043417,1671625563.06,509,120421,62888
61491,10333.891508006807,1671625563.06,510,120193,62838
61491,10333.898753970198,1671625563.06,510,120193,62838
61492,10333.905999933588,1671625563.06,510,120114,62826
61492,10333.913245896978,1671625563.06,510,120114,62826
61493,10333.920491860368,1671625563.06,510,120150,62820
61493,10333.927737823758,1671625563.06,510,120150,62820
61494,10333.934983787149,1671625563.155,510,120012,62798
61494,10333.942229750539,1671625563.155,510,120012,62798
61495,10333.94947571393,1671625563.155,510,119949,62766
61495,10333.95672167732,1671625563.155,510,119949,62766
61496,10333.96396764071,1671625563.155,509,119922,62750
61496,10333.9712136041,1671625563.155,509,119922,62750
61497,10333.97845956749,1671625563.155,509,119923,62759
61497,10333.98570553088,1671625563.155,509,119923,62759
61498,10333.998583512044,1671625563.155,510,119943,62773
61498,10334.005983323677,1671625563.155,510,119943,62773
61499,10334.01338313531,1671625563.155,509,119754,62727
61499,10334.020782946944,1671625563.155,509,119754,62727
61500,10334.028182758577,1671625563.258,510,119841,62725
61500,10334.03558257021,1671625563.258,510,119841,62725
61501,10334.042982381843,1671625563.258,510,119842,62724
61501,10334.050382193476,1671625563.258,510,119842,62724
61502,10334.05778200511,1671625563.258,508,119805,62728
61502,10334.065181816743,1671625563.258,508,119805,62728
61503,10334.072581628376,1671625563.258,510,119816,62734
61503,10334.079981440009,1671625563.258,510,119816,62734
61504,10334.087381251642,1671625563.258,508,119869,62728
61504,10334.094781063275,1671625563.258,508,119869,62728
61505,10334.102180874908,1671625563.258,508,119851,62711
61505,10334.109580686541,1671625563.258,508,119851,62711
61506,10334.116980498175,1671625563.348,508,119911,62704
61506,10334.124380309808,1671625563.348,508,119911,62704
61507,10334.13178012144,1671625563.348,509,119754,62681
61507,10334.139179933074,1671625563.348,509,119754,62681
61508,10334.163628996661,1671625563.348,510,119734,62681
61508,10334.170971473097,1671625563.348,510,119734,62681
61509,10334.178313949533,1671625563.348,510,119802,62684
61509,10334.185656425969,1671625563.348,510,119802,62684
61510,10334.192998902405,1671625563.348,509,119743,62671
61510,10334.20034137884,1671625563.348,509,119743,62671
61511,10334.207683855277,1671625563.348,510,119753,62661
61511,10334.215026331713,1671625563.348,510,119753,62661
61512,10334.222368808149,1671625563.446,509,119757,62658
61512,10334.229711284584,1671625563.446,509,119757,62658
61513,10334.23705376102,1671625563.446,509,119675,62653
61513,10334.244396237456,1671625563.446,509,119675,62653
61514,10334.251738713892,1671625563.446,509,119788,62654
61514,10334.259081190328,1671625563.446,509,119788,62654
61515,10334.266423666764,1671625563.446,510,119744,62643
61515,10334.2737661432,1671625563.446,510,119744,62643
61516,10334.281108619636,1671625563.446,512,119699,62632
61516,10334.288451096072,1671625563.446,512,119699,62632
61517,10334.295793572508,1671625563.446,509,119798,62651
61517,10334.303136048944,1671625563.446,509,119798,62651
61518,10334.322293123269,1671625563.524,509,119796,62642
61518,10334.329967393605,1671625563.524,509,119796,62642
61519,10334.337641663942,1671625563.524,509,119795,62651
61519,10334.345315934279,1671625563.524,509,119795,62651
61520,10334.352990204616,1671625563.524,509,119679,62637
61520,10334.360664474953,1671625563.524,509,119679,62637
61521,10334.36833874529,1671625563.524,510,119804,62633
61521,10334.376013015626,1671625563.524,510,119804,62633
61522,10334.383687285963,1671625563.524,511,119789,62648
61522,10334.3913615563,1671625563.524,511,119789,62648
61523,10334.399035826636,1671625563.524,510,119811,62616
61523,10334.406710096973,1671625563.524,510,119811,62616
61524,10334.41438436731,1671625563.648,511,119856,62620
61524,10334.422058637647,1671625563.648,511,119856,62620
61525,10334.429732907984,1671625563.648,510,119899,62634
61525,10334.43740717832,1671625563.648,510,119899,62634
61526,10334.445081448657,1671625563.648,511,119946,62641
61526,10334.452755718994,1671625563.648,511,119946,62641
61527,10334.46042998933,1671625563.648,511,119968,62636
61527,10334.468104259668,1671625563.648,511,119968,62636
61528,10334.485051267415,1671625563.648,508,120027,62664
61528,10334.494525087503,1671625563.648,508,120027,62664
61529,10334.50399890759,1671625563.648,509,119959,62656
61529,10334.513472727678,1671625563.648,509,119959,62656
61530,10334.522946547766,1671625563.725,510,119963,62658
61530,10334.532420367854,1671625563.725,510,119963,62658
61531,10334.541894187942,1671625563.725,510,120012,62641
61531,10334.55136800803,1671625563.725,510,120012,62641
61532,10334.560841828117,1671625563.725,510,120093,62648
61532,10334.570315648205,1671625563.725,510,120093,62648
61533,10334.579789468293,1671625563.725,509,120179,62659
61533,10334.58926328838,1671625563.725,509,120179,62659
61534,10334.598737108468,1671625563.725,509,120140,62649
61534,10334.608210928556,1671625563.725,509,120140,62649
61535,10334.617684748644,1671625563.725,510,120132,62651
61535,10334.627158568732,1671625563.725,510,120132,62651
61536,10334.63663238882,1671625563.81,511,120078,62640
61536,10334.646106208907,1671625563.81,511,120078,62640
61537,10334.655580028995,1671625563.81,509,120067,62649
61537,10334.665053849083,1671625563.81,509,120067,62649
61538,10334.627623529854,1671625563.81,510,120139,62661
61538,10334.634040076908,1671625563.81,510,120139,62661
61539,10334.640456623962,1671625563.81,510,120217,62676
61539,10334.646873171016,1671625563.81,510,120217,62676
61540,10334.65328971807,1671625563.81,509,120163,62673
61540,10334.659706265124,1671625563.81,509,120163,62673
61541,10334.666122812177,1671625563.81,511,120112,62649
61541,10334.672539359231,1671625563.81,511,120112,62649
61542,10334.678955906285,1671625563.899,510,120187,62655
61542,10334.68537245334,1671625563.899,510,120187,62655
61543,10334.691789000393,1671625563.899,509,120226,62668
61543,10334.698205547447,1671625563.899,509,120226,62668
61544,10334.704622094501,1671625563.899,508,120399,62694
61544,10334.711038641555,1671625563.899,508,120399,62694
61545,10334.71745518861,1671625563.899,509,120379,62688
61545,10334.723871735663,1671625563.899,509,120379,62688
61546,10334.730288282717,1671625563.899,509,120358,62683
61546,10334.736704829771,1671625563.899,509,120358,62683
61547,10334.743121376825,1671625563.899,509,120302,62673
61547,10334.749537923879,1671625563.899,509,120302,62673
61548,10334.774552715935,1671625564.009,510,120358,62667
61548,10334.781575406285,1671625564.009,510,120358,62667
61549,10334.788598096635,1671625564.009,508,120175,62673
61549,10334.795620786985,1671625564.009,508,120175,62673
61550,10334.802643477335,1671625564.009,508,120087,62654
61550,10334.809666167685,1671625564.009,508,120087,62654
61551,10334.816688858034,1671625564.009,509,119967,62605
61551,10334.823711548384,1671625564.009,509,119967,62605
61552,10334.830734238734,1671625564.009,510,119794,62592
61552,10334.837756929084,1671625564.009,510,119794,62592
61553,10334.844779619434,1671625564.009,510,119794,62553
61553,10334.851802309784,1671625564.009,510,119794,62553
61554,10334.858825000134,1671625564.097,509,119703,62541
61554,10334.865847690484,1671625564.097,509,119703,62541
61555,10334.872870380834,1671625564.097,509,119726,62540
61555,10334.879893071184,1671625564.097,509,119726,62540
61556,10334.886915761534,1671625564.097,510,119634,62544
61556,10334.893938451884,1671625564.097,510,119634,62544
61557,10334.900961142233,1671625564.097,510,119626,62514
61557,10334.907983832583,1671625564.097,510,119626,62514
61558,10334.94253571295,1671625564.097,508,119578,62516
61558,10334.949484849807,1671625564.097,508,119578,62516
61559,10334.956433986665,1671625564.097,509,119647,62522
61559,10334.963383123522,1671625564.097,509,119647,62522
61560,10334.97033226038,1671625564.184,508,119655,62513
61560,10334.977281397238,1671625564.184,508,119655,62513
61561,10334.984230534095,1671625564.184,509,119609,62500
61561,10334.991179670953,1671625564.184,509,119609,62500
61562,10334.99812880781,1671625564.184,508,119580,62505
61562,10335.005077944668,1671625564.184,508,119580,62505
61563,10335.012027081526,1671625564.184,510,119530,62477
61563,10335.018976218384,1671625564.184,510,119530,62477
61564,10335.025925355241,1671625564.184,511,119524,62469
61564,10335.032874492099,1671625564.184,511,119524,62469
61565,10335.039823628957,1671625564.184,509,119576,62471
61565,10335.046772765814,1671625564.184,509,119576,62471
61566,10335.053721902672,1671625564.275,508,119578,62458
61566,10335.06067103953,1671625564.275,508,119578,62458
61567,10335.067620176387,1671625564.275,510,119564,62476
61567,10335.074569313245,1671625564.275,510,119564,62476
61568,10335.089484518221,1671625564.275,508,119588,62493
61568,10335.096467506544,1671625564.275,508,119588,62493
61569,10335.103450494868,1671625564.275,508,119596,62466
61569,10335.11043348319,1671625564.275,508,119596,62466
61570,10335.117416471514,1671625564.275,508,119578,62454
61570,10335.124399459837,1671625564.275,508,119578,62454
61571,10335.13138244816,1671625564.275,510,119585,62459
61571,10335.138365436484,1671625564.275,510,119585,62459
61572,10335.145348424807,1671625564.382,510,119550,62423
61572,10335.15233141313,1671625564.382,510,119550,62423
61573,10335.159314401453,1671625564.382,509,119546,62435
61573,10335.166297389776,1671625564.382,509,119546,62435
61574,10335.1732803781,1671625564.382,509,119473,62427
61574,10335.180263366423,1671625564.382,509,119473,62427
61575,10335.187246354746,1671625564.382,508,119587,62426
61575,10335.19422934307,1671625564.382,508,119587,62426
61576,10335.201212331393,1671625564.382,508,119537,62429
61576,10335.208195319716,1671625564.382,508,119537,62429
61577,10335.215178308039,1671625564.382,509,119523,62435
61577,10335.222161296362,1671625564.382,509,119523,62435
61578,10335.25839693227,1671625564.473,508,119584,62421
61578,10335.266748538143,1671625564.473,508,119584,62421
61579,10335.275100144016,1671625564.473,508,119469,62416
61579,10335.283451749889,1671625564.473,508,119469,62416
61580,10335.291803355762,1671625564.473,507,119475,62405
61580,10335.300154961635,1671625564.473,507,119475,62405
61581,10335.308506567508,1671625564.473,509,119501,62407
61581,10335.31685817338,1671625564.473,509,119501,62407
61582,10335.325209779254,1671625564.473,508,119595,62421
61582,10335.333561385127,1671625564.473,508,119595,62421
61583,10335.341912991,1671625564.473,509,119595,62421
61583,10335.350264596873,1671625564.473,509,119595,62421
61584,10335.358616202746,1671625564.562,509,119651,62401
61584,10335.366967808619,1671625564.562,509,119651,62401
61585,10335.375319414492,1671625564.562,509,119662,62412
61585,10335.383671020365,1671625564.562,509,119662,62412
61586,10335.392022626238,1671625564.562,509,119596,62415
61586,10335.400374232111,1671625564.562,509,119596,62415
61587,10335.408725837984,1671625564.562,509,119656,62407
61587,10335.417077443857,1671625564.562,509,119656,62407
61588,10335.407119686419,1671625564.562,509,119700,62429
61588,10335.414043131039,1671625564.562,509,119700,62429
61589,10335.420966575659,1671625564.562,509,119643,62428
61589,10335.427890020279,1671625564.562,509,119643,62428
61590,10335.434813464899,1671625564.664,508,119667,62406
61590,10335.441736909519,1671625564.664,508,119667,62406
61591,10335.448660354139,1671625564.664,509,119664,62426
61591,10335.45558379876,1671625564.664,509,119664,62426
61592,10335.46250724338,1671625564.664,509,119799,62455
61592,10335.469430688,1671625564.664,509,119799,62455
61593,10335.47635413262,1671625564.664,510,119744,62440
61593,10335.48327757724,1671625564.664,510,119744,62440
61594,10335.49020102186,1671625564.664,510,119739,62408
61594,10335.49712446648,1671625564.664,510,119739,62408
61595,10335.5040479111,1671625564.664,511,119741,62408
61595,10335.51097135572,1671625564.664,511,119741,62408
61596,10335.51789480034,1671625564.756,510,119777,62413
61596,10335.52481824496,1671625564.756,510,119777,62413
61597,10335.53174168958,1671625564.756,510,119775,62437
61597,10335.5386651342,1671625564.756,510,119775,62437
61598,10335.570837787178,1671625564.756,511,119752,62429
61598,10335.578273845715,1671625564.756,511,119752,62429
61599,10335.585709904251,1671625564.756,509,119758,62441
61599,10335.593145962788,1671625564.756,509,119758,62441
61600,10335.600582021325,1671625564.756,510,119890,62448
61600,10335.608018079862,1671625564.756,510,119890,62448
61601,10335.615454138398,1671625564.756,510,119939,62438
61601,10335.622890196935,1671625564.756,510,119939,62438
61602,10335.630326255472,1671625564.851,508,119965,62442
61602,10335.637762314009,1671625564.851,508,119965,62442
61603,10335.645198372546,1671625564.851,510,119948,62457
61603,10335.652634431082,1671625564.851,510,119948,62457
61604,10335.66007048962,1671625564.851,511,119811,62418
61604,10335.667506548156,1671625564.851,511,119811,62418
61605,10335.674942606693,1671625564.851,510,119800,62411
61605,10335.68237866523,1671625564.851,510,119800,62411
61606,10335.689814723766,1671625564.851,510,119723,62416
61606,10335.697250782303,1671625564.851,510,119723,62416
61607,10335.70468684084,1671625564.851,509,119616,62391
61607,10335.712122899376,1671625564.851,509,119616,62391
61608,10335.726464635904,1671625564.935,510,119480,62361
61608,10335.733845577888,1671625564.935,510,119480,62361
61609,10335.741226519873,1671625564.935,510,119424,62351
61609,10335.748607461857,1671625564.935,510,119424,62351
61610,10335.755988403842,1671625564.935,510,119287,62307
61610,10335.763369345827,1671625564.935,510,119287,62307
61611,10335.770750287811,1671625564.935,510,119302,62314
61611,10335.778131229796,1671625564.935,510,119302,62314
61612,10335.78551217178,1671625564.935,511,119404,62333
61612,10335.792893113765,1671625564.935,511,119404,62333
61613,10335.80027405575,1671625564.935,510,119371,62336
61613,10335.807654997734,1671625564.935,510,119371,62336
61614,10335.815035939719,1671625565.027,509,119348,62295
61614,10335.822416881703,1671625565.027,509,119348,62295
61615,10335.829797823688,1671625565.027,508,119283,62299
61615,10335.837178765672,1671625565.027,508,119283,62299
61616,10335.844559707657,1671625565.027,509,119324,62289
61616,10335.851940649642,1671625565.027,509,119324,62289
61617,10335.859321591626,1671625565.027,509,119288,62273
61617,10335.86670253361,1671625565.027,509,119288,62273
61618,10335.871413347792,1671625565.027,509,119300,62292
61618,10335.878578222413,1671625565.027,509,119300,62292
61619,10335.885743097035,1671625565.027,511,119260,62258
61619,10335.892907971656,1671625565.027,511,119260,62258
61620,10335.900072846278,1671625565.132,510,119304,62268
61620,10335.9072377209,1671625565.132,510,119304,62268
61621,10335.914402595521,1671625565.132,510,119254,62259
61621,10335.921567470143,1671625565.132,510,119254,62259
61622,10335.928732344764,1671625565.132,510,119278,62241
61622,10335.935897219386,1671625565.132,510,119278,62241
61623,10335.943062094007,1671625565.132,508,119347,62281
61623,10335.950226968629,1671625565.132,508,119347,62281
61624,10335.95739184325,1671625565.132,508,119234,62237
61624,10335.964556717872,1671625565.132,508,119234,62237
61625,10335.971721592494,1671625565.132,509,119238,62221
61625,10335.978886467115,1671625565.132,509,119238,62221
61626,10335.986051341737,1671625565.222,509,119234,62251
61626,10335.993216216359,1671625565.222,509,119234,62251
61627,10336.00038109098,1671625565.222,510,119239,62211
61627,10336.007545965602,1671625565.222,510,119239,62211
61628,10336.03764280756,1671625565.222,509,119204,62231
61628,10336.04499698355,1671625565.222,509,119204,62231
61629,10336.05235115954,1671625565.222,509,119211,62221
61629,10336.05970533553,1671625565.222,509,119211,62221
61630,10336.06705951152,1671625565.222,510,119235,62203
61630,10336.074413687511,1671625565.222,510,119235,62203
61631,10336.081767863501,1671625565.222,508,119163,62209
61631,10336.089122039491,1671625565.222,508,119163,62209
61632,10336.096476215482,1671625565.314,508,119292,62208
61632,10336.103830391472,1671625565.314,508,119292,62208
61633,10336.111184567462,1671625565.314,509,119237,62209
61633,10336.118538743453,1671625565.314,509,119237,62209
61634,10336.125892919443,1671625565.314,509,119224,62210
61634,10336.133247095433,1671625565.314,509,119224,62210
61635,10336.140601271423,1671625565.314,510,119293,62216
61635,10336.147955447414,1671625565.314,510,119293,62216
61636,10336.155309623404,1671625565.314,510,119292,62226
61636,10336.162663799394,1671625565.314,510,119292,62226
61637,10336.170017975384,1671625565.314,511,119293,62219
61637,10336.177372151375,1671625565.314,511,119293,62219
61638,10336.18943730375,1671625565.4,509,119312,62221
61638,10336.196661578952,1671625565.4,509,119312,62221
61639,10336.203885854153,1671625565.4,510,119379,62230
61639,10336.211110129354,1671625565.4,510,119379,62230
61640,10336.218334404555,1671625565.4,511,119269,62198
61640,10336.225558679756,1671625565.4,511,119269,62198
61641,10336.232782954958,1671625565.4,510,119399,62207
61641,10336.240007230159,1671625565.4,510,119399,62207
61642,10336.24723150536,1671625565.4,511,119356,62210
61642,10336.254455780561,1671625565.4,511,119356,62210
61643,10336.261680055763,1671625565.4,510,119485,62239
61643,10336.268904330964,1671625565.4,510,119485,62239
61644,10336.276128606165,1671625565.505,511,119513,62229
61644,10336.283352881366,1671625565.505,511,119513,62229
61645,10336.290577156567,1671625565.505,509,119465,62237
61645,10336.297801431769,1671625565.505,509,119465,62237
61646,10336.30502570697,1671625565.505,509,119452,62206
61646,10336.312249982171,1671625565.505,509,119452,62206
61647,10336.319474257372,1671625565.505,511,119520,62233
61647,10336.326698532574,1671625565.505,511,119520,62233
61648,10336.346300735655,1671625565.505,509,119454,62239
61648,10336.354364520463,1671625565.505,509,119454,62239
61649,10336.36242830527,1671625565.505,510,119521,62236
61649,10336.370492090078,1671625565.505,510,119521,62236
61650,10336.378555874886,1671625565.594,510,119581,62230
61650,10336.386619659694,1671625565.594,510,119581,62230
61651,10336.394683444501,1671625565.594,510,119508,62257
61651,10336.40274722931,1671625565.594,510,119508,62257
61652,10336.410811014117,1671625565.594,511,119523,62238
61652,10336.418874798925,1671625565.594,511,119523,62238
61653,10336.426938583732,1671625565.594,511,119485,62248
61653,10336.43500236854,1671625565.594,511,119485,62248
61654,10336.443066153348,1671625565.594,510,119599,62242
61654,10336.451129938156,1671625565.594,510,119599,62242
61655,10336.459193722963,1671625565.594,509,119606,62256
61655,10336.467257507771,1671625565.594,509,119606,62256
61656,10336.475321292579,1671625565.686,508,119426,62233
61656,10336.483385077387,1671625565.686,508,119426,62233
61657,10336.491448862194,1671625565.686,511,119256,62166
61657,10336.499512647002,1671625565.686,511,119256,62166
61658,10336.49984604186,1671625565.686,509,119389,62213
61658,10336.506939125607,1671625565.686,509,119389,62213
61659,10336.514032209356,1671625565.686,510,119206,62167
61659,10336.521125293104,1671625565.686,510,119206,62167
61660,10336.528218376852,1671625565.686,511,118995,62124
61660,10336.5353114606,1671625565.686,511,118995,62124
61661,10336.542404544349,1671625565.686,510,119049,62115
61661,10336.549497628097,1671625565.686,510,119049,62115
61662,10336.556590711845,1671625565.774,509,119055,62107
61662,10336.563683795594,1671625565.774,509,119055,62107
61663,10336.570776879342,1671625565.774,508,119075,62108
61663,10336.57786996309,1671625565.774,508,119075,62108
61664,10336.584963046838,1671625565.774,508,118921,62086
61664,10336.592056130587,1671625565.774,508,118921,62086
61665,10336.599149214335,1671625565.774,509,118934,62086
61665,10336.606242298083,1671625565.774,509,118934,62086
61666,10336.613335381831,1671625565.774,509,118972,62074
61666,10336.62042846558,1671625565.774,509,118972,62074
61667,10336.627521549328,1671625565.774,510,118846,62069
61667,10336.634614633076,1671625565.774,510,118846,62069
61668,10336.649019667704,1671625565.878,509,118982,62102
61668,10336.65593830536,1671625565.878,509,118982,62102
61669,10336.662856943018,1671625565.878,509,118821,62043
61669,10336.669775580674,1671625565.878,509,118821,62043
61670,10336.676694218331,1671625565.878,509,118863,62050
61670,10336.683612855988,1671625565.878,509,118863,62050
61671,10336.690531493645,1671625565.878,510,118811,62029
61671,10336.697450131302,1671625565.878,510,118811,62029
61672,10336.704368768958,1671625565.878,510,118927,62055
61672,10336.711287406615,1671625565.878,510,118927,62055
61673,10336.718206044272,1671625565.878,510,118966,62057
61673,10336.725124681929,1671625565.878,510,118966,62057
61674,10336.732043319586,1671625565.974,510,118853,62022
61674,10336.738961957242,1671625565.974,510,118853,62022
61675,10336.745880594899,1671625565.974,511,118836,62019
61675,10336.752799232556,1671625565.974,511,118836,62019
61676,10336.759717870213,1671625565.974,510,118913,62026
61676,10336.76663650787,1671625565.974,510,118913,62026
61677,10336.773555145526,1671625565.974,509,118869,62015
61677,10336.780473783183,1671625565.974,509,118869,62015
61678,10336.818067682003,1671625565.974,508,118884,62024
61678,10336.825594358339,1671625565.974,508,118884,62024
61679,10336.833121034675,1671625565.974,509,118791,61992
61679,10336.840647711011,1671625565.974,509,118791,61992
61680,10336.848174387347,1671625566.063,510,118723,62004
61680,10336.855701063683,1671625566.063,510,118723,62004
61681,10336.86322774002,1671625566.063,510,118868,62010
61681,10336.870754416355,1671625566.063,510,118868,62010
61682,10336.878281092691,1671625566.063,508,118857,61999
61682,10336.885807769027,1671625566.063,508,118857,61999
61683,10336.893334445364,1671625566.063,510,118835,61985
61683,10336.9008611217,1671625566.063,510,118835,61985
61684,10336.908387798036,1671625566.063,510,118834,61970
61684,10336.915914474372,1671625566.063,510,118834,61970
61685,10336.923441150708,1671625566.063,510,118822,61983
