id,lsl_ts,unix_ts,ambient,ir,red
131292,12035.822099766667,1671627264.971,529,91622,52416
131292,12035.822099766667,1671627264.971,529,91622,52416
131293,12035.824995733334,1671627264.971,511,97239,52378
131293,12035.824995733334,1671627264.971,511,97239,52378
131294,12035.827891699999,1671627264.971,512,97268,52383
131294,12035.827891699999,1671627264.971,512,97268,52383
131295,12035.830787666666,1671627264.971,511,97163,52345
131295,12035.830787666666,1671627264.971,511,97163,52345
131296,12035.833683633333,1671627264.971,510,97136,52342
131296,12035.833683633333,1671627264.971,510,97136,52342
131297,12035.8365796,1671627264.971,509,97201,52362
131297,12035.8365796,1671627264.971,509,97201,52362
131298,12035.85105895,1671627265.058,509,97182,52345
131298,12035.85105895,1671627265.058,509,97182,52345
131299,12035.8655383,1671627265.058,509,97201,52363
131299,12035.8655383,1671627265.058,509,97201,52363
131300,12035.88001765,1671627265.058,509,97166,52321
131300,12035.88001765,1671627265.058,509,97166,52321
131301,12035.894497,1671627265.058,508,97189,52347
131301,12035.894497,1671627265.058,508,97189,52347
131302,12035.90897635,1671627265.058,510,97201,52327
131302,12035.90897635,1671627265.058,510,97201,52327
131303,12035.9234557,1671627265.058,508,97164,52303
131303,12035.9234557,1671627265.058,508,97164,52303
131304,12035.939280516666,1671627265.153,508,97206,52333
131304,12035.939280516666,1671627265.153,508,97206,52333
131305,12035.955105333333,1671627265.153,509,97053,52300
131305,12035.955105333333,1671627265.153,509,97053,52300
131306,12035.97093015,1671627265.153,508,97168,52306
131306,12035.97093015,1671627265.153,508,97168,52306
131307,12035.986754966667,1671627265.153,509,97142,52307
131307,12035.986754966667,1671627265.153,509,97142,52307
131308,12036.002579783333,1671627265.153,509,97122,52307
131308,12036.002579783333,1671627265.153,509,97122,52307
131309,12036.0184046,1671627265.153,508,97166,52325
131309,12036.0184046,1671627265.153,508,97166,52325
131310,12036.032928616667,1671627265.24,509,97112,52294
131310,12036.032928616667,1671627265.24,509,97112,52294
131311,12036.047452633333,1671627265.24,509,97099,52297
131311,12036.047452633333,1671627265.24,509,97099,52297
131312,12036.061976649999,1671627265.24,509,97119,52309
131312,12036.061976649999,1671627265.24,509,97119,52309
131313,12036.076500666666,1671627265.24,509,97133,52279
131313,12036.076500666666,1671627265.24,509,97133,52279
131314,12036.091024683334,1671627265.24,507,97137,52305
131314,12036.091024683334,1671627265.24,507,97137,52305
131315,12036.1055487,1671627265.24,509,97155,52292
131315,12036.1055487,1671627265.24,509,97155,52292
131316,12036.121427966666,1671627265.335,508,97079,52295
131316,12036.121427966666,1671627265.335,508,97079,52295
131317,12036.137307233334,1671627265.335,507,97230,52323
131317,12036.137307233334,1671627265.335,507,97230,52323
131318,12036.1531865,1671627265.335,507,97165,52304
131318,12036.1531865,1671627265.335,507,97165,52304
131319,12036.169065766666,1671627265.335,509,97117,52304
131319,12036.169065766666,1671627265.335,509,97117,52304
131320,12036.184945033334,1671627265.335,509,97164,52302
131320,12036.184945033334,1671627265.335,509,97164,52302
131321,12036.2008243,1671627265.335,509,97157,52309
131321,12036.2008243,1671627265.335,509,97157,52309
131322,12036.216897983333,1671627265.431,509,97203,52318
131322,12036.216897983333,1671627265.431,509,97203,52318
131323,12036.232971666666,1671627265.431,508,97213,52339
131323,12036.232971666666,1671627265.431,508,97213,52339
131324,12036.24904535,1671627265.431,507,97262,52337
131324,12036.24904535,1671627265.431,507,97262,52337
131325,12036.265119033334,1671627265.431,509,97173,52314
131325,12036.265119033334,1671627265.431,509,97173,52314
131326,12036.281192716668,1671627265.431,510,97187,52319
131326,12036.281192716668,1671627265.431,510,97187,52319
131327,12036.2972664,1671627265.431,509,97268,52344
131327,12036.2972664,1671627265.431,509,97268,52344
131328,12036.313550983334,1671627265.529,509,97239,52325
131328,12036.313550983334,1671627265.529,509,97239,52325
131329,12036.329835566667,1671627265.529,508,97300,52331
131329,12036.329835566667,1671627265.529,508,97300,52331
131330,12036.34612015,1671627265.529,508,97270,52343
131330,12036.34612015,1671627265.529,508,97270,52343
131331,12036.362404733334,1671627265.529,509,97203,52335
131331,12036.362404733334,1671627265.529,509,97203,52335
131332,12036.378689316667,1671627265.529,509,97274,52350
131332,12036.378689316667,1671627265.529,509,97274,52350
131333,12036.3949739,1671627265.529,509,97266,52327
131333,12036.3949739,1671627265.529,509,97266,52327
131334,12036.411672216667,1671627265.629,509,97291,52340
131334,12036.411672216667,1671627265.629,509,97291,52340
131335,12036.428370533333,1671627265.629,510,97340,52357
131335,12036.428370533333,1671627265.629,510,97340,52357
131336,12036.44506885,1671627265.629,508,97366,52357
131336,12036.44506885,1671627265.629,508,97366,52357
131337,12036.461767166667,1671627265.629,509,97328,52379
131337,12036.461767166667,1671627265.629,509,97328,52379
131338,12036.478465483333,1671627265.629,509,97348,52372
131338,12036.478465483333,1671627265.629,509,97348,52372
131339,12036.4951638,1671627265.629,508,97335,52398
131339,12036.4951638,1671627265.629,508,97335,52398
131340,12036.509877516666,1671627265.718,509,97334,52402
131340,12036.509877516666,1671627265.718,509,97334,52402
131341,12036.524591233334,1671627265.718,510,97366,52375
131341,12036.524591233334,1671627265.718,510,97366,52375
131342,12036.53930495,1671627265.718,509,97318,52408
131342,12036.53930495,1671627265.718,509,97318,52408
131343,12036.554018666666,1671627265.718,509,97380,52384
131343,12036.554018666666,1671627265.718,509,97380,52384
131344,12036.568732383334,1671627265.718,509,97449,52446
131344,12036.568732383334,1671627265.718,509,97449,52446
131345,12036.5834461,1671627265.718,508,97397,52411
131345,12036.5834461,1671627265.718,508,97397,52411
131346,12036.597930666667,1671627265.804,508,97456,52421
131346,12036.597930666667,1671627265.804,508,97456,52421
131347,12036.612415233332,1671627265.804,509,97406,52392
131347,12036.612415233332,1671627265.804,509,97406,52392
131348,12036.6268998,1671627265.804,508,97321,52398
131348,12036.6268998,1671627265.804,508,97321,52398
131349,12036.641384366667,1671627265.804,508,97306,52373
131349,12036.641384366667,1671627265.804,508,97306,52373
131350,12036.655868933332,1671627265.804,508,97199,52348
131350,12036.655868933332,1671627265.804,508,97199,52348
131351,12036.6703535,1671627265.804,509,97220,52331
131351,12036.6703535,1671627265.804,509,97220,52331
131352,12036.68825285,1671627265.912,509,97213,52329
131352,12036.68825285,1671627265.912,509,97213,52329
131353,12036.7061522,1671627265.912,509,97174,52309
131353,12036.7061522,1671627265.912,509,97174,52309
131354,12036.72405155,1671627265.912,508,97155,52305
131354,12036.72405155,1671627265.912,508,97155,52305
131355,12036.7419509,1671627265.912,509,97152,52308
131355,12036.7419509,1671627265.912,509,97152,52308
131356,12036.75985025,1671627265.912,508,97189,52292
131356,12036.75985025,1671627265.912,508,97189,52292
131357,12036.7777496,1671627265.912,509,97098,52290
131357,12036.7777496,1671627265.912,509,97098,52290
131358,12036.793806166666,1671627266.008,509,97079,52294
131358,12036.793806166666,1671627266.008,509,97079,52294
131359,12036.809862733333,1671627266.008,508,97065,52289
131359,12036.809862733333,1671627266.008,508,97065,52289
131360,12036.825919300001,1671627266.008,508,97044,52302
131360,12036.825919300001,1671627266.008,508,97044,52302
131361,12036.841975866668,1671627266.008,508,97096,52310
131361,12036.841975866668,1671627266.008,508,97096,52310
131362,12036.858032433334,1671627266.008,507,97088,52290
131362,12036.858032433334,1671627266.008,507,97088,52290
131363,12036.874089,1671627266.008,508,97068,52273
131363,12036.874089,1671627266.008,508,97068,52273
131364,12036.888354683335,1671627266.094,509,97072,52264
131364,12036.888354683335,1671627266.094,509,97072,52264
131365,12036.902620366667,1671627266.094,508,97070,52289
131365,12036.902620366667,1671627266.094,508,97070,52289
131366,12036.91688605,1671627266.094,508,97063,52291
131366,12036.91688605,1671627266.094,508,97063,52291
131367,12036.931151733334,1671627266.094,507,97134,52296
131367,12036.931151733334,1671627266.094,507,97134,52296
131368,12036.945417416668,1671627266.094,509,97056,52271
131368,12036.945417416668,1671627266.094,509,97056,52271
131369,12036.9596831,1671627266.094,509,97042,52261
131369,12036.9596831,1671627266.094,509,97042,52261
131370,12036.974166283333,1671627266.181,509,97032,52274
131370,12036.974166283333,1671627266.181,509,97032,52274
131371,12036.988649466666,1671627266.181,510,97000,52241
131371,12036.988649466666,1671627266.181,510,97000,52241
131372,12037.00313265,1671627266.181,509,97032,52248
131372,12037.00313265,1671627266.181,509,97032,52248
131373,12037.017615833334,1671627266.181,510,97069,52261
131373,12037.017615833334,1671627266.181,510,97069,52261
131374,12037.032099016667,1671627266.181,510,96995,52247
131374,12037.032099016667,1671627266.181,510,96995,52247
131375,12037.0465822,1671627266.181,509,97047,52250
131375,12037.0465822,1671627266.181,509,97047,52250
131376,12037.061969,1671627266.273,511,96963,52237
131376,12037.061969,1671627266.273,511,96963,52237
131377,12037.0773558,1671627266.273,508,97013,52259
131377,12037.0773558,1671627266.273,508,97013,52259
131378,12037.0927426,1671627266.273,509,97039,52248
131378,12037.0927426,1671627266.273,509,97039,52248
131379,12037.1081294,1671627266.273,509,96998,52252
131379,12037.1081294,1671627266.273,509,96998,52252
131380,12037.1235162,1671627266.273,509,96964,52248
131380,12037.1235162,1671627266.273,509,96964,52248
131381,12037.138903,1671627266.273,509,97016,52252
131381,12037.138903,1671627266.273,509,97016,52252
131382,12037.154736766666,1671627266.368,509,96998,52240
131382,12037.154736766666,1671627266.368,509,96998,52240
131383,12037.170570533333,1671627266.368,510,97060,52265
131383,12037.170570533333,1671627266.368,510,97060,52265
131384,12037.186404299999,1671627266.368,508,97071,52272
131384,12037.186404299999,1671627266.368,508,97071,52272
131385,12037.202238066666,1671627266.368,509,97091,52254
131385,12037.202238066666,1671627266.368,509,97091,52254
131386,12037.218071833333,1671627266.368,508,97085,52274
131386,12037.218071833333,1671627266.368,508,97085,52274
131387,12037.2339056,1671627266.368,508,97124,52284
131387,12037.2339056,1671627266.368,508,97124,52284
131388,12037.2496723,1671627266.463,508,97184,52291
131388,12037.2496723,1671627266.463,508,97184,52291
131389,12037.265439,1671627266.463,508,97086,52286
131389,12037.265439,1671627266.463,508,97086,52286
131390,12037.281205700001,1671627266.463,508,97068,52279
131390,12037.281205700001,1671627266.463,508,97068,52279
131391,12037.2969724,1671627266.463,508,97119,52288
131391,12037.2969724,1671627266.463,508,97119,52288
131392,12037.3127391,1671627266.463,508,97136,52301
131392,12037.3127391,1671627266.463,508,97136,52301
131393,12037.3285058,1671627266.463,509,97082,52289
131393,12037.3285058,1671627266.463,509,97082,52289
131394,12037.352478166667,1671627266.607,508,97164,52307
131394,12037.352478166667,1671627266.607,508,97164,52307
131395,12037.376450533333,1671627266.607,508,97075,52299
131395,12037.376450533333,1671627266.607,508,97075,52299
131396,12037.4004229,1671627266.607,508,97141,52313
131396,12037.4004229,1671627266.607,508,97141,52313
131397,12037.424395266667,1671627266.607,507,97193,52318
131397,12037.424395266667,1671627266.607,507,97193,52318
131398,12037.448367633333,1671627266.607,509,97160,52313
131398,12037.448367633333,1671627266.607,509,97160,52313
131399,12037.47234,1671627266.607,509,97215,52324
131399,12037.47234,1671627266.607,509,97215,52324
131400,12037.47934505,1671627266.648,507,97235,52347
131400,12037.47934505,1671627266.648,507,97235,52347
131401,12037.4863501,1671627266.648,509,97189,52321
131401,12037.4863501,1671627266.648,509,97189,52321
131402,12037.49335515,1671627266.648,508,97255,52364
131402,12037.49335515,1671627266.648,508,97255,52364
131403,12037.5003602,1671627266.648,509,97221,52372
131403,12037.5003602,1671627266.648,509,97221,52372
131404,12037.50736525,1671627266.648,507,97182,52357
131404,12037.50736525,1671627266.648,507,97182,52357
131405,12037.5143703,1671627266.648,510,97236,52347
131405,12037.5143703,1671627266.648,510,97236,52347
131406,12037.528938216667,1671627266.736,509,97210,52353
131406,12037.528938216667,1671627266.736,509,97210,52353
131407,12037.543506133334,1671627266.736,508,97272,52374
131407,12037.543506133334,1671627266.736,508,97272,52374
131408,12037.55807405,1671627266.736,508,97316,52375
131408,12037.55807405,1671627266.736,508,97316,52375
131409,12037.572641966666,1671627266.736,508,97330,52398
131409,12037.572641966666,1671627266.736,508,97330,52398
131410,12037.587209883333,1671627266.736,508,97305,52377
131410,12037.587209883333,1671627266.736,508,97305,52377
131411,12037.6017778,1671627266.736,507,97320,52404
131411,12037.6017778,1671627266.736,507,97320,52404
131412,12037.620698316667,1671627266.849,509,97275,52376
131412,12037.620698316667,1671627266.849,509,97275,52376
131413,12037.639618833333,1671627266.849,509,97346,52398
131413,12037.639618833333,1671627266.849,509,97346,52398
131414,12037.658539349999,1671627266.849,509,97239,52341
131414,12037.658539349999,1671627266.849,509,97239,52341
131415,12037.677459866667,1671627266.849,508,97154,52341
131415,12037.677459866667,1671627266.849,508,97154,52341
131416,12037.696380383333,1671627266.849,509,97103,52332
131416,12037.696380383333,1671627266.849,509,97103,52332
131417,12037.7153009,1671627266.849,508,97127,52305
131417,12037.7153009,1671627266.849,508,97127,52305
131418,12037.729575683334,1671627266.935,509,97142,52325
131418,12037.729575683334,1671627266.935,509,97142,52325
131419,12037.743850466666,1671627266.935,508,97054,52284
131419,12037.743850466666,1671627266.935,508,97054,52284
131420,12037.758125249999,1671627266.935,508,97078,52303
131420,12037.758125249999,1671627266.935,508,97078,52303
131421,12037.772400033333,1671627266.935,508,97092,52317
131421,12037.772400033333,1671627266.935,508,97092,52317
131422,12037.786674816667,1671627266.935,507,97067,52297
131422,12037.786674816667,1671627266.935,507,97067,52297
131423,12037.8009496,1671627266.935,507,97078,52307
131423,12037.8009496,1671627266.935,507,97078,52307
131424,12037.816578083333,1671627267.029,509,97057,52284
131424,12037.816578083333,1671627267.029,509,97057,52284
131425,12037.832206566667,1671627267.029,507,97021,52273
131425,12037.832206566667,1671627267.029,507,97021,52273
131426,12037.84783505,1671627267.029,509,97009,52292
131426,12037.84783505,1671627267.029,509,97009,52292
131427,12037.863463533333,1671627267.029,509,96983,52290
131427,12037.863463533333,1671627267.029,509,96983,52290
131428,12037.879092016667,1671627267.029,509,97031,52281
131428,12037.879092016667,1671627267.029,509,97031,52281
131429,12037.8947205,1671627267.029,508,97005,52276
131429,12037.8947205,1671627267.029,508,97005,52276
131430,12037.9142459,1671627267.146,508,97026,52297
131430,12037.9142459,1671627267.146,508,97026,52297
131431,12037.9337713,1671627267.146,508,97022,52288
131431,12037.9337713,1671627267.146,508,97022,52288
131432,12037.953296700001,1671627267.146,508,97033,52285
131432,12037.953296700001,1671627267.146,508,97033,52285
131433,12037.9728221,1671627267.146,508,96957,52256
131433,12037.9728221,1671627267.146,508,96957,52256
131434,12037.9923475,1671627267.146,508,96954,52277
131434,12037.9923475,1671627267.146,508,96954,52277
131435,12038.0118729,1671627267.146,507,96980,52263
131435,12038.0118729,1671627267.146,507,96980,52263
131436,12038.02137425,1671627267.203,509,96937,52244
131436,12038.02137425,1671627267.203,509,96937,52244
131437,12038.0308756,1671627267.203,510,96956,52260
131437,12038.0308756,1671627267.203,510,96956,52260
131438,12038.04037695,1671627267.203,508,96940,52239
131438,12038.04037695,1671627267.203,508,96940,52239
131439,12038.0498783,1671627267.203,509,96914,52256
131439,12038.0498783,1671627267.203,509,96914,52256
131440,12038.05937965,1671627267.203,507,96952,52243
131440,12038.05937965,1671627267.203,507,96952,52243
131441,12038.068881,1671627267.203,509,96976,52245
131441,12038.068881,1671627267.203,509,96976,52245
131442,12038.083950533333,1671627267.293,508,96979,52274
131442,12038.083950533333,1671627267.293,508,96979,52274
131443,12038.099020066666,1671627267.293,508,96964,52264
131443,12038.099020066666,1671627267.293,508,96964,52264
131444,12038.1140896,1671627267.293,509,96926,52271
131444,12038.1140896,1671627267.293,509,96926,52271
131445,12038.129159133334,1671627267.293,508,96906,52260
131445,12038.129159133334,1671627267.293,508,96906,52260
131446,12038.144228666666,1671627267.293,508,96984,52270
131446,12038.144228666666,1671627267.293,508,96984,52270
131447,12038.1592982,1671627267.293,509,96970,52253
131447,12038.1592982,1671627267.293,509,96970,52253
131448,12038.176896333334,1671627267.399,508,97009,52276
131448,12038.176896333334,1671627267.399,508,97009,52276
131449,12038.194494466667,1671627267.399,508,96991,52289
131449,12038.194494466667,1671627267.399,508,96991,52289
131450,12038.212092599999,1671627267.399,508,97071,52274
131450,12038.212092599999,1671627267.399,508,97071,52274
131451,12038.229690733333,1671627267.399,508,97070,52296
131451,12038.229690733333,1671627267.399,508,97070,52296
131452,12038.247288866667,1671627267.399,509,97039,52286
131452,12038.247288866667,1671627267.399,509,97039,52286
131453,12038.264887,1671627267.399,509,97045,52290
131453,12038.264887,1671627267.399,509,97045,52290
131454,12038.2799061,1671627267.489,509,97122,52304
131454,12038.2799061,1671627267.489,509,97122,52304
131455,12038.2949252,1671627267.489,508,97087,52306
131455,12038.2949252,1671627267.489,508,97087,52306
131456,12038.3099443,1671627267.489,507,97087,52290
131456,12038.3099443,1671627267.489,507,97087,52290
131457,12038.3249634,1671627267.489,508,96995,52301
131457,12038.3249634,1671627267.489,508,96995,52301
131458,12038.339982500001,1671627267.489,507,97051,52314
131458,12038.339982500001,1671627267.489,507,97051,52314
131459,12038.3550016,1671627267.489,509,97098,52292
131459,12038.3550016,1671627267.489,509,97098,52292
131460,12038.370264083334,1671627267.581,508,97066,52299
131460,12038.370264083334,1671627267.581,508,97066,52299
131461,12038.385526566668,1671627267.581,509,97058,52319
131461,12038.385526566668,1671627267.581,509,97058,52319
131462,12038.40078905,1671627267.581,509,97043,52321
131462,12038.40078905,1671627267.581,509,97043,52321
131463,12038.416051533333,1671627267.581,509,97070,52317
131463,12038.416051533333,1671627267.581,509,97070,52317
131464,12038.431314016667,1671627267.581,508,97116,52346
131464,12038.431314016667,1671627267.581,508,97116,52346
131465,12038.4465765,1671627267.581,508,97197,52330
131465,12038.4465765,1671627267.581,508,97197,52330
131466,12038.462644183333,1671627267.677,508,97072,52332
131466,12038.462644183333,1671627267.677,508,97072,52332
131467,12038.478711866666,1671627267.677,508,97162,52356
131467,12038.478711866666,1671627267.677,508,97162,52356
131468,12038.494779550001,1671627267.677,509,97174,52354
131468,12038.494779550001,1671627267.677,509,97174,52354
131469,12038.510847233334,1671627267.677,507,97254,52372
131469,12038.510847233334,1671627267.677,507,97254,52372
131470,12038.526914916667,1671627267.677,510,97179,52363
131470,12038.526914916667,1671627267.677,510,97179,52363
131471,12038.5429826,1671627267.677,508,97193,52373
131471,12038.5429826,1671627267.677,508,97193,52373
131472,12038.558860616668,1671627267.772,507,97214,52380
131472,12038.558860616668,1671627267.772,507,97214,52380
131473,12038.574738633333,1671627267.772,508,97202,52381
131473,12038.574738633333,1671627267.772,508,97202,52381
131474,12038.590616649999,1671627267.772,507,97146,52376
131474,12038.590616649999,1671627267.772,507,97146,52376
131475,12038.606494666667,1671627267.772,509,97160,52364
131475,12038.606494666667,1671627267.772,509,97160,52364
131476,12038.622372683334,1671627267.772,508,97130,52354
131476,12038.622372683334,1671627267.772,508,97130,52354
131477,12038.6382507,1671627267.772,510,97058,52330
131477,12038.6382507,1671627267.772,510,97058,52330
131478,12038.6547479,1671627267.871,509,97029,52318
131478,12038.6547479,1671627267.871,509,97029,52318
131479,12038.6712451,1671627267.871,509,97002,52294
131479,12038.6712451,1671627267.871,509,97002,52294
131480,12038.6877423,1671627267.871,508,96982,52294
131480,12038.6877423,1671627267.871,508,96982,52294
131481,12038.704239499999,1671627267.871,507,97004,52289
131481,12038.704239499999,1671627267.871,507,97004,52289
131482,12038.7207367,1671627267.871,508,96919,52273
131482,12038.7207367,1671627267.871,508,96919,52273
131483,12038.7372339,1671627267.871,507,96927,52277
131483,12038.7372339,1671627267.871,507,96927,52277
131484,12038.751847283333,1671627267.959,507,96884,52265
131484,12038.751847283333,1671627267.959,507,96884,52265
131485,12038.766460666666,1671627267.959,509,96936,52296
131485,12038.766460666666,1671627267.959,509,96936,52296
131486,12038.781074049999,1671627267.959,507,96896,52256
131486,12038.781074049999,1671627267.959,507,96896,52256
131487,12038.795687433334,1671627267.959,509,96902,52259
131487,12038.795687433334,1671627267.959,509,96902,52259
131488,12038.810300816667,1671627267.959,509,96863,52259
131488,12038.810300816667,1671627267.959,509,96863,52259
131489,12038.8249142,1671627267.959,508,96919,52254
131489,12038.8249142,1671627267.959,508,96919,52254
131490,12038.84217285,1671627268.063,509,96913,52277
131490,12038.84217285,1671627268.063,509,96913,52277
131491,12038.859431500001,1671627268.063,508,96858,52281
131491,12038.859431500001,1671627268.063,508,96858,52281
131492,12038.87669015,1671627268.063,507,96876,52265
131492,12038.87669015,1671627268.063,507,96876,52265
131493,12038.8939488,1671627268.063,507,96924,52263
131493,12038.8939488,1671627268.063,507,96924,52263
131494,12038.91120745,1671627268.063,506,96838,52264
131494,12038.91120745,1671627268.063,506,96838,52264
131495,12038.9284661,1671627268.063,507,96885,52244
131495,12038.9284661,1671627268.063,507,96885,52244
131496,12038.948099566667,1671627268.18,507,96902,52272
131496,12038.948099566667,1671627268.18,507,96902,52272
131497,12038.967733033334,1671627268.18,508,96861,52257
131497,12038.967733033334,1671627268.18,508,96861,52257
131498,12038.987366500001,1671627268.18,506,96838,52244
131498,12038.987366500001,1671627268.18,506,96838,52244
131499,12039.006999966667,1671627268.18,506,96789,52241
131499,12039.006999966667,1671627268.18,506,96789,52241
131500,12039.026633433334,1671627268.18,507,96862,52252
131500,12039.026633433334,1671627268.18,507,96862,52252
131501,12039.0462669,1671627268.18,507,96872,52246
131501,12039.0462669,1671627268.18,507,96872,52246
131502,12039.056408333334,1671627268.241,506,96877,52242
131502,12039.056408333334,1671627268.241,506,96877,52242
131503,12039.066549766667,1671627268.241,506,96819,52248
131503,12039.066549766667,1671627268.241,506,96819,52248
131504,12039.0766912,1671627268.241,508,96816,52218
131504,12039.0766912,1671627268.241,508,96816,52218
131505,12039.086832633335,1671627268.241,506,96827,52235
131505,12039.086832633335,1671627268.241,506,96827,52235
131506,12039.096974066668,1671627268.241,508,96878,52256
131506,12039.096974066668,1671627268.241,508,96878,52256
131507,12039.1071155,1671627268.241,506,96850,52258
131507,12039.1071155,1671627268.241,506,96850,52258
131508,12039.1214142,1671627268.327,509,96796,52232
131508,12039.1214142,1671627268.327,509,96796,52232
131509,12039.1357129,1671627268.327,507,96861,52254
131509,12039.1357129,1671627268.327,507,96861,52254
131510,12039.1500116,1671627268.327,507,96933,52258
131510,12039.1500116,1671627268.327,507,96933,52258
131511,12039.1643103,1671627268.327,507,96901,52254
131511,12039.1643103,1671627268.327,507,96901,52254
131512,12039.178609,1671627268.327,507,96835,52268
131512,12039.178609,1671627268.327,507,96835,52268
131513,12039.1929077,1671627268.327,507,96954,52272
131513,12039.1929077,1671627268.327,507,96954,52272
131514,12039.209405883334,1671627268.426,507,96950,52278
131514,12039.209405883334,1671627268.426,507,96950,52278
131515,12039.225904066667,1671627268.426,506,96919,52275
131515,12039.225904066667,1671627268.426,506,96919,52275
131516,12039.24240225,1671627268.426,508,96884,52269
131516,12039.24240225,1671627268.426,508,96884,52269
131517,12039.258900433333,1671627268.426,508,96937,52270
131517,12039.258900433333,1671627268.426,508,96937,52270
131518,12039.275398616666,1671627268.426,508,96949,52296
131518,12039.275398616666,1671627268.426,508,96949,52296
131519,12039.2918968,1671627268.426,507,96953,52276
131519,12039.2918968,1671627268.426,507,96953,52276
131520,12039.307684366666,1671627268.521,510,96996,52328
131520,12039.307684366666,1671627268.521,510,96996,52328
131521,12039.323471933332,1671627268.521,507,96993,52296
131521,12039.323471933332,1671627268.521,507,96993,52296
131522,12039.3392595,1671627268.521,509,96964,52296
131522,12039.3392595,1671627268.521,509,96964,52296
131523,12039.355047066667,1671627268.521,507,97012,52302
131523,12039.355047066667,1671627268.521,507,97012,52302
131524,12039.370834633333,1671627268.521,507,96992,52315
131524,12039.370834633333,1671627268.521,507,96992,52315
131525,12039.3866222,1671627268.521,508,96953,52328
131525,12039.3866222,1671627268.521,508,96953,52328
131526,12039.4038036,1671627268.624,508,96984,52324
131526,12039.4038036,1671627268.624,508,96984,52324
131527,12039.420985,1671627268.624,508,97032,52320
131527,12039.420985,1671627268.624,508,97032,52320
131528,12039.4381664,1671627268.624,507,97089,52345
131528,12039.4381664,1671627268.624,507,97089,52345
131529,12039.4553478,1671627268.624,506,97055,52359
131529,12039.4553478,1671627268.624,506,97055,52359
131530,12039.4725292,1671627268.624,508,97076,52330
131530,12039.4725292,1671627268.624,508,97076,52330
131531,12039.4897106,1671627268.624,509,97036,52324
131531,12039.4897106,1671627268.624,509,97036,52324
131532,12039.505125566668,1671627268.716,509,96942,52302
131532,12039.505125566668,1671627268.716,509,96942,52302
131533,12039.520540533334,1671627268.716,509,96895,52293
131533,12039.520540533334,1671627268.716,509,96895,52293
131534,12039.5359555,1671627268.716,508,96918,52280
131534,12039.5359555,1671627268.716,508,96918,52280
131535,12039.551370466666,1671627268.716,508,96863,52259
131535,12039.551370466666,1671627268.716,508,96863,52259
131536,12039.566785433333,1671627268.716,508,96882,52272
131536,12039.566785433333,1671627268.716,508,96882,52272
131537,12039.5822004,1671627268.716,507,96844,52283
131537,12039.5822004,1671627268.716,507,96844,52283
131538,12039.597283766667,1671627268.807,507,96897,52277
131538,12039.597283766667,1671627268.807,507,96897,52277
131539,12039.612367133333,1671627268.807,507,96753,52238
131539,12039.612367133333,1671627268.807,507,96753,52238
131540,12039.6274505,1671627268.807,508,96777,52253
131540,12039.6274505,1671627268.807,508,96777,52253
131541,12039.642533866667,1671627268.807,509,96811,52269
131541,12039.642533866667,1671627268.807,509,96811,52269
131542,12039.651745918367,1671627268.807,508,96824,52259
131542,12039.658825764214,1671627268.807,508,96824,52259
131543,12039.665905610062,1671627268.807,508,96769,52254
131543,12039.672985455909,1671627268.807,508,96769,52254
131544,12039.680065301756,1671627268.901,507,96779,52253
131544,12039.687145147604,1671627268.901,507,96779,52253
131545,12039.694224993451,1671627268.901,507,96732,52231
131545,12039.701304839298,1671627268.901,507,96732,52231
131546,12039.708384685146,1671627268.901,507,96705,52240
131546,12039.715464530993,1671627268.901,507,96705,52240
131547,12039.72254437684,1671627268.901,507,96714,52232
131547,12039.729624222688,1671627268.901,507,96714,52232
131548,12039.736704068535,1671627268.901,508,96710,52226
131548,12039.743783914382,1671627268.901,508,96710,52226
131549,12039.75086376023,1671627268.901,507,96784,52248
131549,12039.757943606077,1671627268.901,507,96784,52248
131550,12039.765023451924,1671627268.995,507,96745,52236
131550,12039.772103297772,1671627268.995,507,96745,52236
131551,12039.779183143619,1671627268.995,507,96706,52235
131551,12039.786262989466,1671627268.995,507,96706,52235
131552,12039.807978390856,1671627268.995,508,96703,52234
131552,12039.815330037243,1671627268.995,508,96703,52234
131553,12039.82268168363,1671627268.995,507,96641,52207
131553,12039.830033330018,1671627268.995,507,96641,52207
131554,12039.837384976405,1671627268.995,509,96661,52219
131554,12039.844736622792,1671627268.995,509,96661,52219
131555,12039.85208826918,1671627268.995,508,96675,52220
131555,12039.859439915566,1671627268.995,508,96675,52220
131556,12039.866791561954,1671627269.086,508,96673,52223
131556,12039.87414320834,1671627269.086,508,96673,52223
131557,12039.881494854728,1671627269.086,508,96703,52224
131557,12039.888846501115,1671627269.086,508,96703,52224
131558,12039.896198147502,1671627269.086,509,96642,52207
131558,12039.90354979389,1671627269.086,509,96642,52207
131559,12039.910901440277,1671627269.086,506,96756,52226
131559,12039.918253086664,1671627269.086,506,96756,52226
131560,12039.925604733051,1671627269.086,507,96648,52199
131560,12039.932956379438,1671627269.086,507,96648,52199
131561,12039.940308025825,1671627269.086,506,96683,52231
131561,12039.947659672212,1671627269.086,506,96683,52231
131562,12039.960578163615,1671627269.195,507,96733,52237
131562,12039.967637537491,1671627269.195,507,96733,52237
131563,12039.974696911368,1671627269.195,507,96642,52222
131563,12039.981756285244,1671627269.195,507,96642,52222
131564,12039.98881565912,1671627269.195,506,96649,52237
131564,12039.995875032997,1671627269.195,506,96649,52237
131565,12040.002934406873,1671627269.195,509,96640,52230
131565,12040.00999378075,1671627269.195,509,96640,52230
131566,12040.017053154626,1671627269.195,508,96627,52238
131566,12040.024112528503,1671627269.195,508,96627,52238
131567,12040.03117190238,1671627269.195,508,96717,52252
131567,12040.038231276256,1671627269.195,508,96717,52252
131568,12040.045290650132,1671627269.272,506,96726,52240
131568,12040.052350024009,1671627269.272,506,96726,52240
131569,12040.059409397885,1671627269.272,505,96731,52256
131569,12040.066468771762,1671627269.272,505,96731,52256
131570,12040.073528145638,1671627269.272,507,96725,52241
131570,12040.080587519515,1671627269.272,507,96725,52241
131571,12040.087646893391,1671627269.272,507,96728,52274
131571,12040.094706267268,1671627269.272,507,96728,52274
131572,12040.120158960366,1671627269.272,509,96711,52241
131572,12040.126294840778,1671627269.272,509,96711,52241
131573,12040.13243072119,1671627269.272,509,96748,52269
131573,12040.138566601603,1671627269.272,509,96748,52269
131574,12040.144702482015,1671627269.386,507,96750,52269
131574,12040.150838362428,1671627269.386,507,96750,52269
131575,12040.15697424284,1671627269.386,508,96762,52259
131575,12040.163110123252,1671627269.386,508,96762,52259
131576,12040.169246003665,1671627269.386,507,96785,52281
131576,12040.175381884077,1671627269.386,507,96785,52281
131577,12040.18151776449,1671627269.386,507,96771,52313
131577,12040.187653644902,1671627269.386,507,96771,52313
131578,12040.193789525314,1671627269.386,506,96700,52285
131578,12040.199925405726,1671627269.386,506,96700,52285
131579,12040.206061286139,1671627269.386,506,96826,52313
131579,12040.212197166551,1671627269.386,506,96826,52313
131580,12040.218333046963,1671627269.458,508,96755,52271
131580,12040.224468927376,1671627269.458,508,96755,52271
131581,12040.230604807788,1671627269.458,507,96831,52300
131581,12040.2367406882,1671627269.458,507,96831,52300
131582,12040.284612839363,1671627269.458,507,96837,52313
131582,12040.291200079024,1671627269.458,507,96837,52313
131583,12040.297787318685,1671627269.458,507,96828,52337
131583,12040.304374558345,1671627269.458,507,96828,52337
131584,12040.310961798006,1671627269.458,507,96855,52333
131584,12040.317549037667,1671627269.458,507,96855,52333
131585,12040.324136277328,1671627269.458,508,96815,52324
131585,12040.330723516989,1671627269.458,508,96815,52324
131586,12040.33731075665,1671627269.557,508,96869,52320
131586,12040.34389799631,1671627269.557,508,96869,52320
131587,12040.350485235971,1671627269.557,506,96841,52301
131587,12040.357072475632,1671627269.557,506,96841,52301
131588,12040.363659715293,1671627269.557,507,96766,52299
131588,12040.370246954953,1671627269.557,507,96766,52299
131589,12040.376834194614,1671627269.557,507,96749,52283
131589,12040.383421434275,1671627269.557,507,96749,52283
131590,12040.390008673936,1671627269.557,507,96696,52268
131590,12040.396595913597,1671627269.557,507,96696,52268
131591,12040.403183153257,1671627269.557,509,96753,52273
131591,12040.409770392918,1671627269.557,509,96753,52273
131592,12040.432909229236,1671627269.648,508,96687,52269
131592,12040.440655121574,1671627269.648,508,96687,52269
131593,12040.448401013913,1671627269.648,506,96694,52258
131593,12040.456146906252,1671627269.648,506,96694,52258
131594,12040.46389279859,1671627269.648,509,96609,52249
131594,12040.47163869093,1671627269.648,509,96609,52249
131595,12040.479384583268,1671627269.648,508,96605,52248
131595,12040.487130475607,1671627269.648,508,96605,52248
131596,12040.494876367946,1671627269.648,508,96608,52249
131596,12040.502622260285,1671627269.648,508,96608,52249
131597,12040.510368152623,1671627269.648,509,96552,52237
131597,12040.518114044962,1671627269.648,509,96552,52237
131598,12040.525859937301,1671627269.743,507,96551,52233
131598,12040.53360582964,1671627269.743,507,96551,52233
131599,12040.541351721979,1671627269.743,507,96540,52237
131599,12040.549097614317,1671627269.743,507,96540,52237
131600,12040.556843506656,1671627269.743,507,96601,52233
131600,12040.564589398995,1671627269.743,507,96601,52233
131601,12040.572335291334,1671627269.743,507,96523,52226
131601,12040.580081183673,1671627269.743,507,96523,52226
131602,12040.586905847222,1671627269.743,508,96552,52236
131602,12040.594334216988,1671627269.743,508,96552,52236
131603,12040.601762586755,1671627269.743,506,96551,52233
131603,12040.609190956522,1671627269.743,506,96551,52233
131604,12040.616619326289,1671627269.855,507,96653,52277
131604,12040.624047696056,1671627269.855,507,96653,52277
131605,12040.631476065822,1671627269.855,507,96582,52257
131605,12040.63890443559,1671627269.855,507,96582,52257
131606,12040.646332805356,1671627269.855,508,96568,52229
131606,12040.653761175123,1671627269.855,508,96568,52229
131607,12040.66118954489,1671627269.855,507,96539,52215
131607,12040.668617914656,1671627269.855,507,96539,52215
131608,12040.676046284423,1671627269.855,507,96514,52230
131608,12040.68347465419,1671627269.855,507,96514,52230
131609,12040.690903023957,1671627269.855,506,96534,52255
131609,12040.698331393723,1671627269.855,506,96534,52255
131610,12040.70575976349,1671627269.929,509,96546,52234
131610,12040.713188133257,1671627269.929,509,96546,52234
131611,12040.720616503024,1671627269.929,506,96530,52248
131611,12040.72804487279,1671627269.929,506,96530,52248
131612,12040.75516859875,1671627269.929,508,96548,52240
131612,12040.761823459032,1671627269.929,508,96548,52240
131613,12040.768478319314,1671627269.929,509,96474,52214
131613,12040.775133179597,1671627269.929,509,96474,52214
131614,12040.78178803988,1671627269.929,507,96505,52222
131614,12040.788442900162,1671627269.929,507,96505,52222
131615,12040.795097760445,1671627269.929,509,96573,52254
131615,12040.801752620728,1671627269.929,509,96573,52254
131616,12040.80840748101,1671627270.024,506,96516,52253
131616,12040.815062341293,1671627270.024,506,96516,52253
131617,12040.821717201576,1671627270.024,507,96605,52263
131617,12040.828372061858,1671627270.024,507,96605,52263
131618,12040.835026922141,1671627270.024,509,96519,52237
131618,12040.841681782424,1671627270.024,509,96519,52237
131619,12040.848336642706,1671627270.024,507,96591,52278
131619,12040.854991502989,1671627270.024,507,96591,52278
131620,12040.861646363272,1671627270.024,508,96557,52270
131620,12040.868301223554,1671627270.024,508,96557,52270
131621,12040.874956083837,1671627270.024,509,96599,52296
131621,12040.88161094412,1671627270.024,509,96599,52296
131622,12040.899308957843,1671627270.119,507,96645,52297
131622,12040.906680456801,1671627270.119,507,96645,52297
131623,12040.914051955759,1671627270.119,506,96624,52296
131623,12040.921423454716,1671627270.119,506,96624,52296
131624,12040.928794953674,1671627270.119,506,96636,52320
131624,12040.936166452631,1671627270.119,506,96636,52320
131625,12040.943537951589,1671627270.119,508,96644,52314
131625,12040.950909450547,1671627270.119,508,96644,52314
131626,12040.958280949504,1671627270.119,508,96634,52316
131626,12040.965652448462,1671627270.119,508,96634,52316
131627,12040.97302394742,1671627270.119,508,96625,52311
131627,12040.980395446377,1671627270.119,508,96625,52311
131628,12040.987766945334,1671627270.22,509,96638,52307
131628,12040.995138444292,1671627270.22,509,96638,52307
131629,12041.00250994325,1671627270.22,507,96696,52345
131629,12041.009881442207,1671627270.22,507,96696,52345
131630,12041.017252941165,1671627270.22,509,96681,52339
131630,12041.024624440122,1671627270.22,509,96681,52339
131631,12041.03199593908,1671627270.22,507,96663,52329
131631,12041.039367438038,1671627270.22,507,96663,52329
131632,12041.062450452722,1671627270.22,506,96737,52366
131632,12041.07028177238,1671627270.22,506,96737,52366
131633,12041.078113092037,1671627270.22,507,96637,52352
131633,12041.085944411694,1671627270.22,507,96637,52352
131634,12041.093775731351,1671627270.305,508,96720,52358
131634,12041.101607051009,1671627270.305,508,96720,52358
131635,12041.109438370666,1671627270.305,508,96798,52380
131635,12041.117269690323,1671627270.305,508,96798,52380
131636,12041.12510100998,1671627270.305,508,96809,52387
131636,12041.132932329638,1671627270.305,508,96809,52387
131637,12041.140763649295,1671627270.305,507,96703,52375
131637,12041.148594968952,1671627270.305,507,96703,52375
131638,12041.15642628861,1671627270.305,508,96758,52401
131638,12041.164257608267,1671627270.305,508,96758,52401
131639,12041.172088927924,1671627270.305,508,96761,52402
131639,12041.179920247581,1671627270.305,508,96761,52402
131640,12041.187751567239,1671627270.4,508,96724,52403
131640,12041.195582886896,1671627270.4,508,96724,52403
131641,12041.203414206553,1671627270.4,508,96805,52421
131641,12041.21124552621,1671627270.4,508,96805,52421
131642,12041.211824718537,1671627270.4,507,96846,52431
131642,12041.218989289948,1671627270.4,507,96846,52431
131643,12041.226153861358,1671627270.4,509,96839,52432
131643,12041.233318432769,1671627270.4,509,96839,52432
131644,12041.24048300418,1671627270.4,508,96922,52457
131644,12041.24764757559,1671627270.4,508,96922,52457
131645,12041.254812147,1671627270.4,506,96868,52463
131645,12041.261976718411,1671627270.4,506,96868,52463
131646,12041.269141289822,1671627270.498,508,96926,52454
131646,12041.276305861233,1671627270.498,508,96926,52454
131647,12041.283470432643,1671627270.498,508,96935,52480
131647,12041.290635004054,1671627270.498,508,96935,52480
131648,12041.297799575465,1671627270.498,506,96916,52462
131648,12041.304964146875,1671627270.498,506,96916,52462
131649,12041.312128718286,1671627270.498,509,96843,52473
131649,12041.319293289696,1671627270.498,509,96843,52473
131650,12041.326457861107,1671627270.498,507,96882,52457
131650,12041.333622432518,1671627270.498,507,96882,52457
131651,12041.340787003928,1671627270.498,508,96799,52440
131651,12041.347951575339,1671627270.498,508,96799,52440
131652,12041.3742732183,1671627270.588,508,96764,52416
131652,12041.381982996983,1671627270.588,508,96764,52416
131653,12041.389692775667,1671627270.588,509,96753,52420
131653,12041.39740255435,1671627270.588,509,96753,52420
131654,12041.405112333034,1671627270.588,508,96820,52432
131654,12041.412822111717,1671627270.588,508,96820,52432
131655,12041.4205318904,1671627270.588,508,96684,52424
131655,12041.428241669084,1671627270.588,508,96684,52424
131656,12041.435951447767,1671627270.588,508,96685,52406
131656,12041.44366122645,1671627270.588,508,96685,52406
131657,12041.451371005134,1671627270.588,508,96780,52446
131657,12041.459080783818,1671627270.588,508,96780,52446
131658,12041.466790562501,1671627270.678,507,96788,52455
131658,12041.474500341184,1671627270.678,507,96788,52455
131659,12041.482210119868,1671627270.678,507,96720,52425
131659,12041.489919898551,1671627270.678,507,96720,52425
131660,12041.497629677235,1671627270.678,508,96705,52411
131660,12041.505339455918,1671627270.678,508,96705,52411
131661,12041.513049234602,1671627270.678,510,96742,52419
131661,12041.520759013285,1671627270.678,510,96742,52419
131662,12041.522635042116,1671627270.678,508,96712,52426
131662,12041.529657156338,1671627270.678,508,96712,52426
131663,12041.536679270559,1671627270.678,509,96660,52431
131663,12041.54370138478,1671627270.678,509,96660,52431
131664,12041.550723499002,1671627270.777,508,96653,52416
131664,12041.557745613223,1671627270.777,508,96653,52416
131665,12041.564767727445,1671627270.777,508,96726,52441
131665,12041.571789841666,1671627270.777,508,96726,52441
131666,12041.578811955887,1671627270.777,509,96813,52452
131666,12041.585834070109,1671627270.777,509,96813,52452
131667,12041.59285618433,1671627270.777,510,96745,52448
131667,12041.599878298552,1671627270.777,510,96745,52448
131668,12041.606900412773,1671627270.777,508,96715,52441
131668,12041.613922526994,1671627270.777,508,96715,52441
131669,12041.620944641216,1671627270.777,508,96711,52430
131669,12041.627966755437,1671627270.777,508,96711,52430
131670,12041.634988869659,1671627270.868,509,96688,52445
131670,12041.64201098388,1671627270.868,509,96688,52445
131671,12041.649033098101,1671627270.868,508,96727,52421
131671,12041.656055212323,1671627270.868,508,96727,52421
131672,12041.683090612676,1671627270.868,506,96801,52453
131672,12041.69039575112,1671627270.868,506,96801,52453
131673,12041.697700889565,1671627270.868,507,96707,52426
131673,12041.705006028009,1671627270.868,507,96707,52426
131674,12041.712311166453,1671627270.868,509,96714,52437
131674,12041.719616304897,1671627270.868,509,96714,52437
131675,12041.726921443342,1671627270.868,507,96733,52455
131675,12041.734226581786,1671627270.868,507,96733,52455
131676,12041.74153172023,1671627270.987,508,96703,52453
131676,12041.748836858675,1671627270.987,508,96703,52453
131677,12041.756141997119,1671627270.987,509,96794,52468
131677,12041.763447135563,1671627270.987,509,96794,52468
131678,12041.770752274007,1671627270.987,508,96756,52423
131678,12041.778057412452,1671627270.987,508,96756,52423
131679,12041.785362550896,1671627270.987,508,96841,52485
131679,12041.79266768934,1671627270.987,508,96841,52485
131680,12041.799972827785,1671627270.987,507,96839,52478
131680,12041.807277966229,1671627270.987,507,96839,52478
131681,12041.814583104673,1671627270.987,509,96830,52503
131681,12041.821888243117,1671627270.987,509,96830,52503
131682,12041.865195923945,1671627271.051,509,96761,52485
131682,12041.87447471487,1671627271.051,509,96761,52485
131683,12041.883753505796,1671627271.051,508,96870,52486
131683,12041.89303229672,1671627271.051,508,96870,52486
131684,12041.902311087646,1671627271.051,511,96862,52508
131684,12041.911589878571,1671627271.051,511,96862,52508
131685,12041.920868669496,1671627271.051,508,96876,52502
131685,12041.930147460422,1671627271.051,508,96876,52502
131686,12041.939426251347,1671627271.051,509,96899,52500
131686,12041.948705042272,1671627271.051,509,96899,52500
131687,12041.957983833197,1671627271.051,508,96909,52507
131687,12041.967262624123,1671627271.051,508,96909,52507
131688,12041.976541415048,1671627271.151,508,96953,52524
131688,12041.985820205973,1671627271.151,508,96953,52524
131689,12041.995098996898,1671627271.151,508,96881,52520
131689,12042.004377787824,1671627271.151,508,96881,52520
131690,12042.013656578749,1671627271.151,509,96868,52521
131690,12042.022935369674,1671627271.151,509,96868,52521
131691,12042.0322141606,1671627271.151,508,96936,52527
131691,12042.041492951525,1671627271.151,508,96936,52527
131692,12041.993169821202,1671627271.151,509,96914,52551
131692,12042.000835667175,1671627271.151,509,96914,52551
131693,12042.008501513148,1671627271.151,508,96980,52559
131693,12042.016167359121,1671627271.151,508,96980,52559
131694,12042.023833205094,1671627271.237,509,96942,52518
131694,12042.031499051067,1671627271.237,509,96942,52518
131695,12042.03916489704,1671627271.237,508,96971,52567
131695,12042.046830743013,1671627271.237,508,96971,52567
131696,12042.054496588986,1671627271.237,508,96932,52543
131696,12042.062162434959,1671627271.237,508,96932,52543
131697,12042.069828280932,1671627271.237,508,96991,52572
131697,12042.077494126905,1671627271.237,508,96991,52572
131698,12042.085159972878,1671627271.237,508,97007,52591
131698,12042.09282581885,1671627271.237,508,97007,52591
131699,12042.100491664823,1671627271.237,508,97017,52576
131699,12042.108157510796,1671627271.237,508,97017,52576
131700,12042.11582335677,1671627271.379,507,97043,52609
131700,12042.123489202742,1671627271.379,507,97043,52609
131701,12042.131155048715,1671627271.379,508,97000,52611
131701,12042.138820894688,1671627271.379,508,97000,52611
131702,12042.162154695843,1671627271.379,509,97014,52613
131702,12042.171943013629,1671627271.379,509,97014,52613
131703,12042.181731331415,1671627271.379,508,97043,52597
131703,12042.191519649201,1671627271.379,508,97043,52597
131704,12042.201307966987,1671627271.379,509,97109,52635
131704,12042.211096284773,1671627271.379,509,97109,52635
131705,12042.220884602559,1671627271.379,509,97077,52607
131705,12042.230672920345,1671627271.379,509,97077,52607
131706,12042.24046123813,1671627271.426,508,97093,52614
131706,12042.250249555917,1671627271.426,508,97093,52614
131707,12042.260037873702,1671627271.426,508,97050,52604
131707,12042.269826191488,1671627271.426,508,97050,52604
131708,12042.279614509274,1671627271.426,509,97024,52601
131708,12042.28940282706,1671627271.426,509,97024,52601
131709,12042.299191144846,1671627271.426,509,96997,52580
131709,12042.308979462632,1671627271.426,509,96997,52580
131710,12042.318767780418,1671627271.426,509,97005,52591
131710,12042.328556098204,1671627271.426,509,97005,52591
131711,12042.33834441599,1671627271.426,507,96933,52581
131711,12042.348132733776,1671627271.426,507,96933,52581
131712,12042.296962635763,1671627271.527,509,96926,52571
131712,12042.300734487446,1671627271.527,509,96926,52571
131713,12042.30450633913,1671627271.527,507,96988,52581
131713,12042.308278190812,1671627271.527,507,96988,52581
131714,12042.312050042496,1671627271.527,509,96978,52569
131714,12042.315821894179,1671627271.527,509,96978,52569
131715,12042.319593745862,1671627271.527,508,97017,52593
131715,12042.323365597545,1671627271.527,508,97017,52593
131716,12042.327137449229,1671627271.527,508,96957,52584
131716,12042.330909300912,1671627271.527,508,96957,52584
131717,12042.334681152595,1671627271.527,510,96918,52568
131717,12042.338453004279,1671627271.527,510,96918,52568
131718,12042.342224855962,1671627271.63,509,96982,52582
131718,12042.345996707645,1671627271.63,509,96982,52582
131719,12042.349768559328,1671627271.63,508,97004,52592
131719,12042.353540411012,1671627271.63,508,97004,52592
131720,12042.357312262695,1671627271.63,508,96970,52603
131720,12042.361084114378,1671627271.63,508,96970,52603
131721,12042.364855966061,1671627271.63,507,96997,52585
131721,12042.368627817745,1671627271.63,507,96997,52585
131722,12042.47179572737,1671627271.63,508,96939,52598
131722,12042.479803733992,1671627271.63,508,96939,52598
131723,12042.487811740613,1671627271.63,507,96981,52578
131723,12042.495819747235,1671627271.63,507,96981,52578
131724,12042.503827753857,1671627271.715,508,97045,52616
131724,12042.511835760479,1671627271.715,508,97045,52616
131725,12042.5198437671,1671627271.715,507,96962,52589
131725,12042.527851773722,1671627271.715,507,96962,52589
131726,12042.535859780344,1671627271.715,508,97044,52600
131726,12042.543867786966,1671627271.715,508,97044,52600
131727,12042.551875793588,1671627271.715,507,96970,52610
131727,12042.55988380021,1671627271.715,507,96970,52610
131728,12042.567891806832,1671627271.715,506,97027,52595
131728,12042.575899813453,1671627271.715,506,97027,52595
131729,12042.583907820075,1671627271.715,508,96984,52584
131729,12042.591915826697,1671627271.715,508,96984,52584
131730,12042.599923833319,1671627271.804,507,97026,52602
131730,12042.60793183994,1671627271.804,507,97026,52602
131731,12042.615939846562,1671627271.804,507,97064,52626
131731,12042.623947853184,1671627271.804,507,97064,52626
131732,12042.619232852436,1671627271.804,509,97040,52627
131732,12042.626116870833,1671627271.804,509,97040,52627
131733,12042.633000889231,1671627271.804,507,97059,52615
131733,12042.639884907629,1671627271.804,507,97059,52615
131734,12042.646768926026,1671627271.804,508,97057,52619
131734,12042.653652944424,1671627271.804,508,97057,52619
131735,12042.660536962821,1671627271.804,508,97056,52607
131735,12042.667420981219,1671627271.804,508,97056,52607
131736,12042.674304999617,1671627271.906,508,97013,52634
131736,12042.681189018014,1671627271.906,508,97013,52634
131737,12042.688073036412,1671627271.906,507,97110,52644
131737,12042.69495705481,1671627271.906,507,97110,52644
131738,12042.701841073207,1671627271.906,508,97034,52640
131738,12042.708725091605,1671627271.906,508,97034,52640
131739,12042.715609110002,1671627271.906,508,97107,52614
131739,12042.7224931284,1671627271.906,508,97107,52614
131740,12042.729377146798,1671627271.906,507,97083,52639
131740,12042.736261165195,1671627271.906,507,97083,52639
131741,12042.743145183593,1671627271.906,508,97137,52670
131741,12042.75002920199,1671627271.906,508,97137,52670
131742,12042.782573296277,1671627272.004,508,97200,52670
131742,12042.790551905216,1671627272.004,508,97200,52670
131743,12042.798530514156,1671627272.004,507,97091,52661
131743,12042.806509123095,1671627272.004,507,97091,52661
131744,12042.814487732034,1671627272.004,507,97139,52681
131744,12042.822466340973,1671627272.004,507,97139,52681
131745,12042.830444949912,1671627272.004,508,97166,52667
131745,12042.838423558851,1671627272.004,508,97166,52667
131746,12042.84640216779,1671627272.004,506,97214,52667
131746,12042.85438077673,1671627272.004,506,97214,52667
131747,12042.862359385668,1671627272.004,508,97236,52695
131747,12042.870337994607,1671627272.004,508,97236,52695
131748,12042.878316603546,1671627272.084,508,97163,52681
131748,12042.886295212485,1671627272.084,508,97163,52681
131749,12042.894273821425,1671627272.084,508,97224,52679
131749,12042.902252430364,1671627272.084,508,97224,52679
131750,12042.910231039303,1671627272.084,508,97261,52711
131750,12042.918209648242,1671627272.084,508,97261,52711
131751,12042.926188257181,1671627272.084,508,97271,52696
131751,12042.93416686612,1671627272.084,508,97271,52696
131752,12042.931579986898,1671627272.084,509,97260,52715
131752,12042.937886073425,1671627272.084,509,97260,52715
131753,12042.944192159952,1671627272.084,508,97286,52719
131753,12042.950498246479,1671627272.084,508,97286,52719
131754,12042.956804333005,1671627272.236,508,97346,52706
131754,12042.963110419532,1671627272.236,508,97346,52706
131755,12042.96941650606,1671627272.236,509,97297,52706
131755,12042.975722592586,1671627272.236,509,97297,52706
131756,12042.982028679113,1671627272.236,508,97333,52738
131756,12042.98833476564,1671627272.236,508,97333,52738
131757,12042.994640852166,1671627272.236,509,97351,52731
131757,12043.000946938693,1671627272.236,509,97351,52731
131758,12043.00725302522,1671627272.236,508,97342,52750
131758,12043.013559111747,1671627272.236,508,97342,52750
131759,12043.019865198274,1671627272.236,509,97377,52746
131759,12043.0261712848,1671627272.236,509,97377,52746
131760,12043.032477371327,1671627272.282,508,97388,52767
131760,12043.038783457854,1671627272.282,508,97388,52767
131761,12043.045089544381,1671627272.282,507,97411,52761
131761,12043.051395630908,1671627272.282,507,97411,52761
131762,12043.126534940564,1671627272.282,508,97470,52777
131762,12043.132573139565,1671627272.282,508,97470,52777
131763,12043.138611338565,1671627272.282,508,97413,52756
131763,12043.144649537566,1671627272.282,508,97413,52756
131764,12043.150687736566,1671627272.282,510,97428,52779
131764,12043.156725935567,1671627272.282,510,97428,52779
131765,12043.162764134568,1671627272.282,508,97463,52765
131765,12043.168802333568,1671627272.282,508,97463,52765
131766,12043.174840532569,1671627272.371,507,97392,52769
131766,12043.18087873157,1671627272.371,507,97392,52769
131767,12043.18691693057,1671627272.371,508,97378,52733
131767,12043.19295512957,1671627272.371,508,97378,52733
131768,12043.198993328571,1671627272.371,509,97318,52735
131768,12043.205031527572,1671627272.371,509,97318,52735
131769,12043.211069726573,1671627272.371,508,97374,52729
131769,12043.217107925573,1671627272.371,508,97374,52729
131770,12043.223146124574,1671627272.371,508,97355,52710
131770,12043.229184323574,1671627272.371,508,97355,52710
131771,12043.235222522575,1671627272.371,509,97364,52744
131771,12043.241260721576,1671627272.371,509,97364,52744
131772,12043.245717547534,1671627272.46,508,97409,52732
131772,12043.25262842666,1671627272.46,508,97409,52732
131773,12043.259539305787,1671627272.46,509,97344,52722
131773,12043.266450184914,1671627272.46,509,97344,52722
131774,12043.27336106404,1671627272.46,509,97338,52720
131774,12043.280271943167,1671627272.46,509,97338,52720
131775,12043.287182822294,1671627272.46,509,97301,52712
131775,12043.294093701421,1671627272.46,509,97301,52712
131776,12043.301004580548,1671627272.46,509,97289,52711
131776,12043.307915459674,1671627272.46,509,97289,52711
131777,12043.314826338801,1671627272.46,509,97380,52725
131777,12043.321737217928,1671627272.46,509,97380,52725
131778,12043.328648097055,1671627272.557,510,97416,52728
131778,12043.335558976181,1671627272.557,510,97416,52728
131779,12043.342469855308,1671627272.557,510,97363,52725
131779,12043.349380734435,1671627272.557,510,97363,52725
131780,12043.356291613562,1671627272.557,509,97359,52727
131780,12043.363202492688,1671627272.557,509,97359,52727
131781,12043.370113371815,1671627272.557,510,97472,52734
131781,12043.377024250942,1671627272.557,510,97472,52734
131782,12043.400302807402,1671627272.557,509,97397,52721
131782,12043.407851490467,1671627272.557,509,97397,52721
131783,12043.415400173531,1671627272.557,510,97406,52739
131783,12043.422948856596,1671627272.557,510,97406,52739
131784,12043.43049753966,1671627272.652,510,97343,52713
131784,12043.438046222725,1671627272.652,510,97343,52713
131785,12043.44559490579,1671627272.652,510,97450,52744
131785,12043.453143588855,1671627272.652,510,97450,52744
131786,12043.46069227192,1671627272.652,511,97436,52749
131786,12043.468240954984,1671627272.652,511,97436,52749
131787,12043.475789638049,1671627272.652,510,97448,52752
131787,12043.483338321113,1671627272.652,510,97448,52752
131788,12043.490887004178,1671627272.652,511,97465,52707
131788,12043.498435687243,1671627272.652,511,97465,52707
131789,12043.505984370307,1671627272.652,510,97397,52737
131789,12043.513533053372,1671627272.652,510,97397,52737
131790,12043.521081736437,1671627272.756,508,97419,52740
131790,12043.528630419501,1671627272.756,508,97419,52740
131791,12043.536179102566,1671627272.756,509,97518,52747
131791,12043.54372778563,1671627272.756,509,97518,52747
131792,12043.562878370318,1671627272.756,509,97506,52760
131792,12043.570804989382,1671627272.756,509,97506,52760
131793,12043.578731608446,1671627272.756,510,97467,52751
131793,12043.58665822751,1671627272.756,510,97467,52751
131794,12043.594584846574,1671627272.756,511,97541,52773
131794,12043.602511465639,1671627272.756,511,97541,52773
131795,12043.610438084703,1671627272.756,512,97537,52776
131795,12043.618364703767,1671627272.756,512,97537,52776
131796,12043.626291322831,1671627272.85,510,97449,52768
131796,12043.634217941895,1671627272.85,510,97449,52768
131797,12043.64214456096,1671627272.85,511,97582,52793
131797,12043.650071180024,1671627272.85,511,97582,52793
131798,12043.657997799088,1671627272.85,512,97571,52773
131798,12043.665924418152,1671627272.85,512,97571,52773
131799,12043.673851037216,1671627272.85,510,97549,52782
131799,12043.68177765628,1671627272.85,510,97549,52782
131800,12043.689704275344,1671627272.85,510,97524,52786
131800,12043.697630894409,1671627272.85,510,97524,52786
131801,12043.705557513473,1671627272.85,510,97502,52794
131801,12043.713484132537,1671627272.85,510,97502,52794
131802,12043.725609221163,1671627272.942,512,97575,52767
131802,12043.732955579857,1671627272.942,512,97575,52767
131803,12043.740301938551,1671627272.942,510,97595,52809
131803,12043.747648297245,1671627272.942,510,97595,52809
131804,12043.75499465594,1671627272.942,510,97619,52814
131804,12043.762341014633,1671627272.942,510,97619,52814
131805,12043.769687373328,1671627272.942,511,97616,52793
131805,12043.777033732022,1671627272.942,511,97616,52793
131806,12043.784380090716,1671627272.942,511,97626,52826
131806,12043.79172644941,1671627272.942,511,97626,52826
131807,12043.799072808104,1671627272.942,508,97665,52816
131807,12043.806419166798,1671627272.942,508,97665,52816
131808,12043.813765525492,1671627273.033,509,97648,52790
131808,12043.821111884186,1671627273.033,509,97648,52790
131809,12043.82845824288,1671627273.033,510,97702,52820
131809,12043.835804601575,1671627273.033,510,97702,52820
131810,12043.843150960269,1671627273.033,509,97675,52811
131810,12043.850497318963,1671627273.033,509,97675,52811
131811,12043.857843677657,1671627273.033,509,97725,52842
131811,12043.865190036351,1671627273.033,509,97725,52842
131812,12043.877619856978,1671627273.033,510,97739,52822
131812,12043.88471878766,1671627273.033,510,97739,52822
131813,12043.891817718342,1671627273.033,509,97683,52847
131813,12043.898916649025,1671627273.033,509,97683,52847
131814,12043.906015579707,1671627273.119,511,97753,52837
131814,12043.91311451039,1671627273.119,511,97753,52837
131815,12043.920213441072,1671627273.119,509,97732,52863
131815,12043.927312371754,1671627273.119,509,97732,52863
131816,12043.934411302436,1671627273.119,510,97787,52880
131816,12043.941510233119,1671627273.119,510,97787,52880
131817,12043.948609163801,1671627273.119,511,97737,52847
131817,12043.955708094483,1671627273.119,511,97737,52847
131818,12043.962807025166,1671627273.119,509,97812,52885
131818,12043.969905955848,1671627273.119,509,97812,52885
131819,12043.97700488653,1671627273.119,510,97749,52868
131819,12043.984103817213,1671627273.119,510,97749,52868
131820,12043.991202747895,1671627273.216,512,97767,52872
131820,12043.998301678577,1671627273.216,512,97767,52872
131821,12044.00540060926,1671627273.216,510,97804,52888
131821,12044.012499539942,1671627273.216,510,97804,52888
131822,12044.026252391874,1671627273.216,509,97783,52897
131822,12044.033577656392,1671627273.216,509,97783,52897
131823,12044.04090292091,1671627273.216,510,97781,52878
131823,12044.048228185427,1671627273.216,510,97781,52878
131824,12044.055553449945,1671627273.216,509,97832,52907
131824,12044.062878714463,1671627273.216,509,97832,52907
131825,12044.070203978981,1671627273.216,509,97863,52896
131825,12044.0775292435,1671627273.216,509,97863,52896
131826,12044.084854508017,1671627273.304,509,97867,52933
131826,12044.092179772535,1671627273.304,509,97867,52933
131827,12044.099505037053,1671627273.304,509,97877,52919
131827,12044.10683030157,1671627273.304,509,97877,52919
131828,12044.114155566089,1671627273.304,510,97920,52924
131828,12044.121480830607,1671627273.304,510,97920,52924
131829,12044.128806095125,1671627273.304,509,97830,52905
131829,12044.136131359643,1671627273.304,509,97830,52905
131830,12044.14345662416,1671627273.304,509,97849,52908
131830,12044.150781888678,1671627273.304,509,97849,52908
131831,12044.158107153196,1671627273.304,510,97805,52883
131831,12044.165432417714,1671627273.304,510,97805,52883
131832,12044.178804947609,1671627273.494,510,97780,52875
131832,12044.185704770125,1671627273.494,510,97780,52875
131833,12044.192604592641,1671627273.494,510,97759,52856
131833,12044.199504415157,1671627273.494,510,97759,52856
131834,12044.206404237673,1671627273.494,509,97829,52877
131834,12044.21330406019,1671627273.494,509,97829,52877
131835,12044.220203882705,1671627273.494,510,97722,52856
131835,12044.227103705221,1671627273.494,510,97722,52856
131836,12044.234003527738,1671627273.494,510,97790,52858
131836,12044.240903350254,1671627273.494,510,97790,52858
131837,12044.24780317277,1671627273.494,511,97808,52841
131837,12044.254702995286,1671627273.494,511,97808,52841
131838,12044.261602817802,1671627273.567,510,97769,52877
131838,12044.268502640318,1671627273.567,510,97769,52877
131839,12044.275402462834,1671627273.567,508,97759,52875
131839,12044.28230228535,1671627273.567,508,97759,52875
131840,12044.289202107866,1671627273.567,509,97798,52855
131840,12044.296101930382,1671627273.567,509,97798,52855
131841,12044.303001752898,1671627273.567,509,97780,52848
131841,12044.309901575414,1671627273.567,509,97780,52848
131842,12044.41757783301,1671627273.567,509,97783,52865
131842,12044.423833834324,1671627273.567,509,97783,52865
131843,12044.430089835638,1671627273.567,510,97797,52862
131843,12044.436345836952,1671627273.567,510,97797,52862
131844,12044.442601838266,1671627273.582,511,97740,52839
131844,12044.44885783958,1671627273.582,511,97740,52839
131845,12044.455113840893,1671627273.582,509,97838,52866
131845,12044.461369842207,1671627273.582,509,97838,52866
131846,12044.467625843521,1671627273.582,509,97800,52861
131846,12044.473881844835,1671627273.582,509,97800,52861
131847,12044.480137846149,1671627273.582,510,97826,52866
131847,12044.486393847463,1671627273.582,510,97826,52866
131848,12044.492649848777,1671627273.582,509,97842,52896
131848,12044.49890585009,1671627273.582,509,97842,52896
131849,12044.505161851404,1671627273.582,509,97841,52879
131849,12044.511417852718,1671627273.582,509,97841,52879
131850,12044.517673854032,1671627273.675,510,97853,52895
131850,12044.523929855346,1671627273.675,510,97853,52895
131851,12044.53018585666,1671627273.675,509,97822,52864
131851,12044.536441857974,1671627273.675,509,97822,52864
131852,12044.485097584193,1671627273.675,510,97803,52869
131852,12044.490549722073,1671627273.675,510,97803,52869
131853,12044.496001859954,1671627273.675,510,97861,52892
131853,12044.501453997835,1671627273.675,510,97861,52892
131854,12044.506906135715,1671627273.675,509,97851,52884
131854,12044.512358273596,1671627273.675,509,97851,52884
131855,12044.517810411477,1671627273.675,509,97844,52893
131855,12044.523262549357,1671627273.675,509,97844,52893
131856,12044.528714687238,1671627273.768,509,97799,52872
131856,12044.534166825119,1671627273.768,509,97799,52872
131857,12044.539618963,1671627273.768,508,97883,52880
131857,12044.54507110088,1671627273.768,508,97883,52880
131858,12044.55052323876,1671627273.768,508,97831,52859
131858,12044.555975376641,1671627273.768,508,97831,52859
131859,12044.561427514522,1671627273.768,509,97818,52878
131859,12044.566879652402,1671627273.768,509,97818,52878
131860,12044.572331790283,1671627273.768,510,97854,52865
131860,12044.577783928164,1671627273.768,510,97854,52865
131861,12044.583236066044,1671627273.768,510,97805,52880
131861,12044.588688203925,1671627273.768,510,97805,52880
131862,12044.643623779657,1671627273.863,510,97856,52887
131862,12044.650904391907,1671627273.863,510,97856,52887
131863,12044.658185004157,1671627273.863,509,97894,52894
131863,12044.665465616406,1671627273.863,509,97894,52894
131864,12044.672746228656,1671627273.863,509,97847,52874
131864,12044.680026840906,1671627273.863,509,97847,52874
131865,12044.687307453156,1671627273.863,511,97885,52900
131865,12044.694588065406,1671627273.863,511,97885,52900
131866,12044.701868677656,1671627273.863,509,97915,52890
131866,12044.709149289905,1671627273.863,509,97915,52890
131867,12044.716429902155,1671627273.863,510,97881,52895
131867,12044.723710514405,1671627273.863,510,97881,52895
131868,12044.730991126655,1671627273.953,510,97935,52902
131868,12044.738271738905,1671627273.953,510,97935,52902
131869,12044.745552351154,1671627273.953,510,97889,52900
131869,12044.752832963404,1671627273.953,510,97889,52900
131870,12044.760113575654,1671627273.953,509,97872,52896
131870,12044.767394187904,1671627273.953,509,97872,52896
131871,12044.774674800154,1671627273.953,509,97832,52884
131871,12044.781955412403,1671627273.953,509,97832,52884
131872,12044.798318178242,1671627273.953,509,97945,52904
131872,12044.805357100497,1671627273.953,509,97945,52904
131873,12044.812396022751,1671627273.953,508,98010,52914
131873,12044.819434945006,1671627273.953,508,98010,52914
131874,12044.82647386726,1671627274.047,510,97875,52874
131874,12044.833512789515,1671627274.047,510,97875,52874
131875,12044.84055171177,1671627274.047,509,97922,52906
131875,12044.847590634025,1671627274.047,509,97922,52906
131876,12044.85462955628,1671627274.047,511,97977,52897
131876,12044.861668478534,1671627274.047,511,97977,52897
131877,12044.868707400788,1671627274.047,510,97959,52903
131877,12044.875746323043,1671627274.047,510,97959,52903
131878,12044.882785245298,1671627274.047,510,97936,52905
131878,12044.889824167552,1671627274.047,510,97936,52905
131879,12044.896863089807,1671627274.047,509,98012,52900
131879,12044.903902012062,1671627274.047,509,98012,52900
131880,12044.910940934316,1671627274.174,507,97993,52911
131880,12044.917979856571,1671627274.174,507,97993,52911
131881,12044.925018778826,1671627274.174,509,98000,52913
131881,12044.93205770108,1671627274.174,509,98000,52913
131882,12044.966988269683,1671627274.174,511,97939,52901
131882,12044.976151187067,1671627274.174,511,97939,52901
131883,12044.985314104451,1671627274.174,510,98003,52912
131883,12044.994477021835,1671627274.174,510,98003,52912
131884,12045.00363993922,1671627274.174,510,98000,52894
131884,12045.012802856603,1671627274.174,510,98000,52894
131885,12045.021965773987,1671627274.174,510,97961,52921
131885,12045.031128691371,1671627274.174,510,97961,52921
131886,12045.040291608755,1671627274.246,511,98027,52908
131886,12045.049454526139,1671627274.246,511,98027,52908
131887,12045.058617443523,1671627274.246,510,98037,52928
131887,12045.067780360907,1671627274.246,510,98037,52928
131888,12045.07694327829,1671627274.246,510,98085,52957
131888,12045.086106195675,1671627274.246,510,98085,52957
131889,12045.095269113059,1671627274.246,511,98017,52929
131889,12045.104432030443,1671627274.246,511,98017,52929
131890,12045.113594947827,1671627274.246,509,98036,52931
131890,12045.12275786521,1671627274.246,509,98036,52931
131891,12045.131920782595,1671627274.246,510,98058,52918
131891,12045.141083699978,1671627274.246,510,98058,52918
131892,12045.119529587004,1671627274.339,510,97911,52884
131892,12045.125190756276,1671627274.339,510,97911,52884
131893,12045.130851925549,1671627274.339,510,97965,52899
131893,12045.136513094822,1671627274.339,510,97965,52899
131894,12045.142174264094,1671627274.339,509,97974,52876
131894,12045.147835433367,1671627274.339,509,97974,52876
131895,12045.15349660264,1671627274.339,510,97922,52869
131895,12045.159157771912,1671627274.339,510,97922,52869
131896,12045.164818941184,1671627274.339,509,97941,52854
131896,12045.170480110457,1671627274.339,509,97941,52854
131897,12045.17614127973,1671627274.339,510,97919,52838
131897,12045.181802449002,1671627274.339,510,97919,52838
131898,12045.187463618275,1671627274.419,509,97939,52864
131898,12045.193124787547,1671627274.419,509,97939,52864
131899,12045.19878595682,1671627274.419,510,97967,52864
131899,12045.204447126092,1671627274.419,510,97967,52864
131900,12045.210108295365,1671627274.419,511,97878,52853
131900,12045.215769464638,1671627274.419,511,97878,52853
131901,12045.22143063391,1671627274.419,509,97861,52835
131901,12045.227091803183,1671627274.419,509,97861,52835
131902,12045.26618174156,1671627274.419,511,97900,52828
131902,12045.27246308851,1671627274.419,511,97900,52828
131903,12045.27874443546,1671627274.419,509,97842,52834
131903,12045.28502578241,1671627274.419,509,97842,52834
131904,12045.29130712936,1671627274.521,509,97805,52824
131904,12045.297588476311,1671627274.521,509,97805,52824
131905,12045.303869823261,1671627274.521,510,97844,52816
131905,12045.310151170212,1671627274.521,510,97844,52816
131906,12045.316432517162,1671627274.521,511,97858,52830
131906,12045.322713864112,1671627274.521,511,97858,52830
131907,12045.328995211063,1671627274.521,509,97895,52838
131907,12045.335276558013,1671627274.521,509,97895,52838
131908,12045.341557904963,1671627274.521,511,97934,52854
131908,12045.347839251914,1671627274.521,511,97934,52854
131909,12045.354120598864,1671627274.521,511,97870,52842
131909,12045.360401945814,1671627274.521,511,97870,52842
131910,12045.366683292765,1671627274.615,510,97877,52833
131910,12045.372964639715,1671627274.615,510,97877,52833
131911,12045.379245986665,1671627274.615,511,97865,52829
131911,12045.385527333616,1671627274.615,511,97865,52829
131912,12045.42821466643,1671627274.615,509,97898,52828
131912,12045.435770291377,1671627274.615,509,97898,52828
131913,12045.443325916323,1671627274.615,509,97866,52830
131913,12045.45088154127,1671627274.615,509,97866,52830
131914,12045.458437166217,1671627274.615,509,97836,52807
131914,12045.465992791163,1671627274.615,509,97836,52807
131915,12045.47354841611,1671627274.615,510,97800,52804
131915,12045.481104041057,1671627274.615,510,97800,52804
131916,12045.488659666004,1671627274.705,510,97865,52807
131916,12045.49621529095,1671627274.705,510,97865,52807
131917,12045.503770915897,1671627274.705,509,97872,52809
131917,12045.511326540844,1671627274.705,509,97872,52809
131918,12045.51888216579,1671627274.705,510,97859,52825
131918,12045.526437790737,1671627274.705,510,97859,52825
131919,12045.533993415684,1671627274.705,510,97839,52801
131919,12045.54154904063,1671627274.705,510,97839,52801
131920,12045.549104665577,1671627274.705,509,97847,52820
131920,12045.556660290524,1671627274.705,509,97847,52820
131921,12045.56421591547,1671627274.705,509,97878,52813
131921,12045.571771540417,1671627274.705,509,97878,52813
131922,12045.579508738023,1671627274.802,508,97839,52800
131922,12045.58648291259,1671627274.802,508,97839,52800
131923,12045.593457087156,1671627274.802,509,97904,52808
131923,12045.600431261722,1671627274.802,509,97904,52808
131924,12045.607405436289,1671627274.802,511,97899,52792
131924,12045.614379610855,1671627274.802,511,97899,52792
131925,12045.621353785422,1671627274.802,511,97883,52808
131925,12045.628327959988,1671627274.802,511,97883,52808
131926,12045.635302134555,1671627274.802,510,97858,52800
131926,12045.642276309121,1671627274.802,510,97858,52800
131927,12045.649250483688,1671627274.802,509,97852,52805
131927,12045.656224658254,1671627274.802,509,97852,52805
131928,12045.66319883282,1671627274.91,509,97962,52823
131928,12045.670173007387,1671627274.91,509,97962,52823
131929,12045.677147181954,1671627274.91,508,97869,52789
131929,12045.68412135652,1671627274.91,508,97869,52789
131930,12045.691095531087,1671627274.91,509,97912,52815
131930,12045.698069705653,1671627274.91,509,97912,52815
131931,12045.70504388022,1671627274.91,509,97976,52831
131931,12045.712018054786,1671627274.91,509,97976,52831
131932,12045.751038146378,1671627274.91,509,97858,52802
131932,12045.759437212819,1671627274.91,509,97858,52802
131933,12045.76783627926,1671627274.91,510,97938,52822
131933,12045.7762353457,1671627274.91,510,97938,52822
131934,12045.78463441214,1671627275.007,510,97909,52808
131934,12045.793033478581,1671627275.007,510,97909,52808
131935,12045.801432545022,1671627275.007,509,97927,52805
131935,12045.809831611463,1671627275.007,509,97927,52805
131936,12045.818230677904,1671627275.007,511,97873,52799
131936,12045.826629744344,1671627275.007,511,97873,52799
131937,12045.835028810785,1671627275.007,508,97983,52818
131937,12045.843427877226,1671627275.007,508,97983,52818
131938,12045.851826943666,1671627275.007,511,97885,52810
131938,12045.860226010107,1671627275.007,511,97885,52810
131939,12045.868625076548,1671627275.007,510,97902,52788
131939,12045.877024142988,1671627275.007,510,97902,52788
131940,12045.885423209429,1671627275.092,509,97969,52824
131940,12045.89382227587,1671627275.092,509,97969,52824
131941,12045.90222134231,1671627275.092,510,97913,52802
131941,12045.910620408751,1671627275.092,510,97913,52802
131942,12045.91016255345,1671627275.092,510,97877,52790
131942,12045.917059976633,1671627275.092,510,97877,52790
131943,12045.923957399817,1671627275.092,509,97984,52814
131943,12045.930854823,1671627275.092,509,97984,52814
131944,12045.937752246184,1671627275.092,508,98008,52797
131944,12045.944649669367,1671627275.092,508,98008,52797
131945,12045.95154709255,1671627275.092,510,97977,52814
131945,12045.958444515734,1671627275.092,510,97977,52814
131946,12045.965341938918,1671627275.176,509,97954,52827
131946,12045.972239362101,1671627275.176,509,97954,52827
131947,12045.979136785285,1671627275.176,509,97977,52810
131947,12045.986034208468,1671627275.176,509,97977,52810
131948,12045.992931631652,1671627275.176,510,98001,52827
131948,12045.999829054836,1671627275.176,510,98001,52827
131949,12046.00672647802,1671627275.176,510,98045,52818
131949,12046.013623901203,1671627275.176,510,98045,52818
131950,12046.020521324386,1671627275.176,511,97996,52816
131950,12046.02741874757,1671627275.176,511,97996,52816
131951,12046.034316170753,1671627275.176,510,98014,52810
131951,12046.041213593937,1671627275.176,510,98014,52810
131952,12046.050314585986,1671627275.281,509,98074,52858
131952,12046.05689450122,1671627275.281,509,98074,52858
131953,12046.063474416454,1671627275.281,507,98018,52833
131953,12046.070054331689,1671627275.281,507,98018,52833
131954,12046.076634246923,1671627275.281,509,98060,52822
131954,12046.083214162158,1671627275.281,509,98060,52822
131955,12046.089794077392,1671627275.281,509,97953,52810
131955,12046.096373992626,1671627275.281,509,97953,52810
131956,12046.10295390786,1671627275.281,508,97949,52783
131956,12046.109533823095,1671627275.281,508,97949,52783
131957,12046.11611373833,1671627275.281,511,97844,52747
131957,12046.122693653564,1671627275.281,511,97844,52747
131958,12046.129273568798,1671627275.374,510,97768,52720
131958,12046.135853484033,1671627275.374,510,97768,52720
131959,12046.142433399267,1671627275.374,509,97809,52752
131959,12046.149013314502,1671627275.374,509,97809,52752
131960,12046.155593229736,1671627275.374,511,97788,52729
131960,12046.16217314497,1671627275.374,511,97788,52729
131961,12046.168753060205,1671627275.374,508,97807,52732
131961,12046.17533297544,1671627275.374,508,97807,52732
131962,12046.218462048104,1671627275.374,510,97784,52709
131962,12046.225748643195,1671627275.374,510,97784,52709
131963,12046.233035238287,1671627275.374,510,97788,52727
131963,12046.240321833378,1671627275.374,510,97788,52727
131964,12046.24760842847,1671627275.475,514,97753,52706
131964,12046.254895023561,1671627275.475,514,97753,52706
131965,12046.262181618653,1671627275.475,510,97710,52687
131965,12046.269468213744,1671627275.475,510,97710,52687
131966,12046.276754808836,1671627275.475,510,97682,52686
131966,12046.284041403927,1671627275.475,510,97682,52686
131967,12046.291327999019,1671627275.475,508,97743,52690
131967,12046.29861459411,1671627275.475,508,97743,52690
131968,12046.305901189202,1671627275.475,508,97728,52674
131968,12046.313187784293,1671627275.475,508,97728,52674
131969,12046.320474379385,1671627275.475,510,97717,52685
131969,12046.327760974476,1671627275.475,510,97717,52685
131970,12046.335047569568,1671627275.556,508,97771,52682
131970,12046.34233416466,1671627275.556,508,97771,52682
131971,12046.34962075975,1671627275.556,510,97629,52656
131971,12046.356907354842,1671627275.556,510,97629,52656
131972,12046.376742572624,1671627275.556,510,97679,52671
131972,12046.383514756253,1671627275.556,510,97679,52671
131973,12046.390286939883,1671627275.556,510,97724,52671
131973,12046.397059123512,1671627275.556,510,97724,52671
131974,12046.403831307141,1671627275.556,510,97691,52661
131974,12046.41060349077,1671627275.556,510,97691,52661
131975,12046.4173756744,1671627275.556,509,97682,52658
131975,12046.42414785803,1671627275.556,509,97682,52658
131976,12046.43092004166,1671627275.646,511,97688,52663
131976,12046.437692225289,1671627275.646,511,97688,52663
131977,12046.444464408918,1671627275.646,510,97564,52634
131977,12046.451236592548,1671627275.646,510,97564,52634
131978,12046.458008776177,1671627275.646,511,97623,52645
131978,12046.464780959806,1671627275.646,511,97623,52645
131979,12046.471553143436,1671627275.646,510,97609,52635
131979,12046.478325327065,1671627275.646,510,97609,52635
131980,12046.485097510695,1671627275.646,511,97546,52618
131980,12046.491869694324,1671627275.646,511,97546,52618
131981,12046.498641877954,1671627275.646,511,97578,52632
131981,12046.505414061583,1671627275.646,511,97578,52632
131982,12046.521180435837,1671627275.736,511,97553,52612
131982,12046.528247495562,1671627275.736,511,97553,52612
131983,12046.535314555287,1671627275.736,511,97563,52613
131983,12046.542381615012,1671627275.736,511,97563,52613
131984,12046.549448674738,1671627275.736,511,97544,52607
131984,12046.556515734463,1671627275.736,511,97544,52607
131985,12046.563582794188,1671627275.736,508,97580,52594
131985,12046.570649853913,1671627275.736,508,97580,52594
131986,12046.577716913638,1671627275.736,510,97615,52621
131986,12046.584783973363,1671627275.736,510,97615,52621
131987,12046.591851033088,1671627275.736,511,97625,52603
131987,12046.598918092814,1671627275.736,511,97625,52603
131988,12046.605985152539,1671627275.832,508,97663,52611
131988,12046.613052212264,1671627275.832,508,97663,52611
131989,12046.62011927199,1671627275.832,510,97601,52591
131989,12046.627186331714,1671627275.832,510,97601,52591
131990,12046.63425339144,1671627275.832,511,97562,52614
131990,12046.641320451165,1671627275.832,511,97562,52614
131991,12046.64838751089,1671627275.832,509,97605,52607
131991,12046.655454570615,1671627275.832,509,97605,52607
131992,12046.675750638373,1671627275.832,511,97590,52619
131992,12046.683263449391,1671627275.832,511,97590,52619
131993,12046.69077626041,1671627275.832,511,97631,52609
131993,12046.698289071428,1671627275.832,511,97631,52609
131994,12046.705801882446,1671627275.934,510,97571,52598
131994,12046.713314693465,1671627275.934,510,97571,52598
131995,12046.720827504483,1671627275.934,509,97665,52619
131995,12046.728340315502,1671627275.934,509,97665,52619
131996,12046.73585312652,1671627275.934,510,97650,52608
131996,12046.743365937538,1671627275.934,510,97650,52608
131997,12046.750878748557,1671627275.934,509,97655,52618
131997,12046.758391559575,1671627275.934,509,97655,52618
131998,12046.765904370593,1671627275.934,509,97626,52631
131998,12046.773417181612,1671627275.934,509,97626,52631
131999,12046.78092999263,1671627275.934,509,97599,52601
131999,12046.788442803649,1671627275.934,509,97599,52601
132000,12046.795955614667,1671627276.029,510,97615,52623
132000,12046.803468425685,1671627276.029,510,97615,52623
132001,12046.810981236704,1671627276.029,508,97649,52622
132001,12046.818494047722,1671627276.029,508,97649,52622
132002,12046.841132219613,1671627276.029,509,97625,52605
132002,12046.848718716079,1671627276.029,509,97625,52605
132003,12046.856305212545,1671627276.029,508,97678,52617
132003,12046.86389170901,1671627276.029,508,97678,52617
132004,12046.871478205476,1671627276.029,509,97640,52612
132004,12046.879064701941,1671627276.029,509,97640,52612
132005,12046.886651198407,1671627276.029,510,97631,52605
132005,12046.894237694873,1671627276.029,510,97631,52605
132006,12046.901824191338,1671627276.121,511,97613,52594
132006,12046.909410687804,1671627276.121,511,97613,52594
132007,12046.91699718427,1671627276.121,510,97673,52600
132007,12046.924583680735,1671627276.121,510,97673,52600
132008,12046.9321701772,1671627276.121,509,97641,52597
132008,12046.939756673666,1671627276.121,509,97641,52597
132009,12046.947343170132,1671627276.121,509,97672,52581
132009,12046.954929666597,1671627276.121,509,97672,52581
132010,12046.962516163063,1671627276.121,510,97677,52614
132010,12046.970102659528,1671627276.121,510,97677,52614
132011,12046.977689155994,1671627276.121,509,97703,52613
132011,12046.98527565246,1671627276.121,509,97703,52613
132012,12046.996183320613,1671627276.211,509,97581,52596
132012,12047.003376671619,1671627276.211,509,97581,52596
132013,12047.010570022625,1671627276.211,508,97656,52618
132013,12047.017763373631,1671627276.211,508,97656,52618
132014,12047.024956724637,1671627276.211,509,97692,52608
132014,12047.032150075644,1671627276.211,509,97692,52608
132015,12047.03934342665,1671627276.211,509,97724,52638
132015,12047.046536777656,1671627276.211,509,97724,52638
132016,12047.053730128662,1671627276.211,508,97680,52631
132016,12047.060923479668,1671627276.211,508,97680,52631
132017,12047.068116830675,1671627276.211,508,97697,52605
132017,12047.07531018168,1671627276.211,508,97697,52605
132018,12047.082503532687,1671627276.305,508,97760,52641
132018,12047.089696883693,1671627276.305,508,97760,52641
132019,12047.0968902347,1671627276.305,509,97607,52586
132019,12047.104083585706,1671627276.305,509,97607,52586
132020,12047.111276936712,1671627276.305,510,97648,52588
132020,12047.118470287718,1671627276.305,510,97648,52588
132021,12047.125663638724,1671627276.305,510,97662,52580
132021,12047.13285698973,1671627276.305,510,97662,52580
132022,12047.14917156998,1671627276.305,508,97567,52565
132022,12047.156495643816,1671627276.305,508,97567,52565
132023,12047.163819717653,1671627276.305,508,97594,52540
132023,12047.17114379149,1671627276.305,508,97594,52540
132024,12047.178467865326,1671627276.402,509,97491,52536
132024,12047.185791939162,1671627276.402,509,97491,52536
132025,12047.193116012999,1671627276.402,509,97455,52532
132025,12047.200440086835,1671627276.402,509,97455,52532
132026,12047.207764160672,1671627276.402,509,97474,52527
132026,12047.215088234509,1671627276.402,509,97474,52527
132027,12047.222412308345,1671627276.402,509,97418,52513
132027,12047.229736382182,1671627276.402,509,97418,52513
132028,12047.237060456018,1671627276.402,508,97392,52498
132028,12047.244384529855,1671627276.402,508,97392,52498
132029,12047.251708603691,1671627276.402,508,97413,52509
132029,12047.259032677528,1671627276.402,508,97413,52509
132030,12047.266356751365,1671627276.497,508,97448,52528
132030,12047.273680825201,1671627276.497,508,97448,52528
132031,12047.281004899038,1671627276.497,509,97449,52493
132031,12047.288328972874,1671627276.497,509,97449,52493
132032,12047.309180449622,1671627276.497,509,97379,52500
132032,12047.316618945864,1671627276.497,509,97379,52500
132033,12047.324057442107,1671627276.497,508,97430,52500
132033,12047.33149593835,1671627276.497,508,97430,52500
132034,12047.338934434592,1671627276.497,510,97405,52492
132034,12047.346372930835,1671627276.497,510,97405,52492
132035,12047.353811427078,1671627276.497,509,97410,52487
132035,12047.36124992332,1671627276.497,509,97410,52487
132036,12047.368688419563,1671627276.584,507,97497,52515
132036,12047.376126915806,1671627276.584,507,97497,52515
132037,12047.383565412048,1671627276.584,509,97409,52489
132037,12047.391003908291,1671627276.584,509,97409,52489
132038,12047.398442404534,1671627276.584,509,97407,52490
132038,12047.405880900777,1671627276.584,509,97407,52490
132039,12047.41331939702,1671627276.584,510,97421,52481
132039,12047.420757893262,1671627276.584,510,97421,52481
132040,12047.428196389505,1671627276.584,509,97338,52468
132040,12047.435634885747,1671627276.584,509,97338,52468
132041,12047.44307338199,1671627276.584,509,97376,52466
132041,12047.450511878233,1671627276.584,509,97376,52466
132042,12047.459216041005,1671627276.674,507,97453,52494
132042,12047.46608313662,1671627276.674,507,97453,52494
132043,12047.472950232235,1671627276.674,507,97357,52449
132043,12047.47981732785,1671627276.674,507,97357,52449
132044,12047.486684423466,1671627276.674,509,97392,52457
132044,12047.493551519081,1671627276.674,509,97392,52457
132045,12047.500418614696,1671627276.674,510,97430,52463
132045,12047.507285710311,1671627276.674,510,97430,52463
132046,12047.514152805927,1671627276.674,508,97316,52442
132046,12047.521019901542,1671627276.674,508,97316,52442
132047,12047.527886997157,1671627276.674,510,97329,52444
132047,12047.534754092772,1671627276.674,510,97329,52444
132048,12047.541621188388,1671627276.777,508,97432,52467
132048,12047.548488284003,1671627276.777,508,97432,52467
132049,12047.555355379618,1671627276.777,506,97381,52470
132049,12047.562222475233,1671627276.777,506,97381,52470
132050,12047.569089570849,1671627276.777,509,97357,52463
132050,12047.575956666464,1671627276.777,509,97357,52463
132051,12047.582823762079,1671627276.777,509,97342,52500
132051,12047.589690857694,1671627276.777,509,97342,52500
132052,12047.618609088537,1671627276.777,508,97399,52463
132052,12047.626579137603,1671627276.777,508,97399,52463
132053,12047.634549186669,1671627276.777,509,97374,52444
132053,12047.642519235735,1671627276.777,509,97374,52444
132054,12047.6504892848,1671627276.875,508,97472,52490
132054,12047.658459333867,1671627276.875,508,97472,52490
132055,12047.666429382933,1671627276.875,507,97409,52483
132055,12047.674399431999,1671627276.875,507,97409,52483
132056,12047.682369481065,1671627276.875,509,97416,52460
132056,12047.69033953013,1671627276.875,509,97416,52460
132057,12047.698309579197,1671627276.875,507,97475,52477
132057,12047.706279628263,1671627276.875,507,97475,52477
132058,12047.714249677329,1671627276.875,509,97432,52472
132058,12047.722219726395,1671627276.875,509,97432,52472
132059,12047.73018977546,1671627276.875,508,97493,52476
132059,12047.738159824527,1671627276.875,508,97493,52476
132060,12047.746129873593,1671627276.96,509,97457,52465
132060,12047.754099922658,1671627276.96,509,97457,52465
132061,12047.762069971724,1671627276.96,509,97479,52462
132061,12047.77004002079,1671627276.96,509,97479,52462
132062,12047.77824428898,1671627276.96,509,97483,52471
132062,12047.78517318825,1671627276.96,509,97483,52471
132063,12047.792102087518,1671627276.96,509,97464,52472
132063,12047.799030986787,1671627276.96,509,97464,52472
132064,12047.805959886056,1671627276.96,508,97491,52477
132064,12047.812888785325,1671627276.96,508,97491,52477
132065,12047.819817684594,1671627276.96,508,97539,52506
132065,12047.826746583863,1671627276.96,508,97539,52506
132066,12047.833675483133,1671627277.057,510,97453,52472
132066,12047.840604382402,1671627277.057,510,97453,52472
132067,12047.84753328167,1671627277.057,508,97447,52481
132067,12047.85446218094,1671627277.057,508,97447,52481
132068,12047.861391080209,1671627277.057,510,97485,52465
132068,12047.868319979478,1671627277.057,510,97485,52465
132069,12047.875248878747,1671627277.057,508,97520,52485
132069,12047.882177778016,1671627277.057,508,97520,52485
132070,12047.889106677285,1671627277.057,509,97539,52504
132070,12047.896035576554,1671627277.057,509,97539,52504
132071,12047.902964475823,1671627277.057,509,97547,52497
132071,12047.909893375092,1671627277.057,509,97547,52497
132072,12047.93277857212,1671627277.15,510,97506,52502
132072,12047.940379738902,1671627277.15,510,97506,52502
132073,12047.947980905685,1671627277.15,510,97524,52498
132073,12047.955582072467,1671627277.15,510,97524,52498
132074,12047.96318323925,1671627277.15,508,97510,52484
132074,12047.970784406032,1671627277.15,508,97510,52484
132075,12047.978385572815,1671627277.15,508,97571,52515
132075,12047.985986739597,1671627277.15,508,97571,52515
132076,12047.99358790638,1671627277.15,509,97525,52497
132076,12048.001189073162,1671627277.15,509,97525,52497
132077,12048.008790239945,1671627277.15,507,97576,52510
132077,12048.016391406727,1671627277.15,507,97576,52510
132078,12048.02399257351,1671627277.24,508,97536,52456
132078,12048.031593740292,1671627277.24,508,97536,52456
132079,12048.039194907074,1671627277.24,509,97499,52454
132079,12048.046796073857,1671627277.24,509,97499,52454
132080,12048.05439724064,1671627277.24,509,97453,52429
132080,12048.061998407422,1671627277.24,509,97453,52429
132081,12048.069599574204,1671627277.24,509,97437,52452
132081,12048.077200740987,1671627277.24,509,97437,52452
132082,12048.08491030416,1671627277.24,509,97391,52446
132082,12048.091954461623,1671627277.24,509,97391,52446
132083,12048.098998619085,1671627277.24,510,97354,52430
132083,12048.106042776548,1671627277.24,510,97354,52430
132084,12048.11308693401,1671627277.341,509,97381,52409
132084,12048.120131091473,1671627277.341,509,97381,52409
132085,12048.127175248936,1671627277.341,508,97289,52420
132085,12048.134219406398,1671627277.341,508,97289,52420
132086,12048.14126356386,1671627277.341,507,97397,52417
132086,12048.148307721323,1671627277.341,507,97397,52417
132087,12048.155351878786,1671627277.341,509,97297,52394
132087,12048.162396036249,1671627277.341,509,97297,52394
132088,12048.169440193711,1671627277.341,510,97346,52411
132088,12048.176484351174,1671627277.341,510,97346,52411
132089,12048.183528508636,1671627277.341,508,97352,52409
132089,12048.190572666099,1671627277.341,508,97352,52409
132090,12048.197616823561,1671627277.428,508,97239,52385
132090,12048.204660981024,1671627277.428,508,97239,52385
132091,12048.211705138487,1671627277.428,509,97280,52417
132091,12048.21874929595,1671627277.428,509,97280,52417
132092,12048.24536716503,1671627277.428,509,97317,52371
132092,12048.25247164911,1671627277.428,509,97317,52371
132093,12048.25957613319,1671627277.428,510,97249,52388
132093,12048.266680617271,1671627277.428,510,97249,52388
132094,12048.273785101352,1671627277.428,509,97326,52399
132094,12048.280889585432,1671627277.428,509,97326,52399
132095,12048.287994069513,1671627277.428,509,97310,52420
132095,12048.295098553594,1671627277.428,509,97310,52420
132096,12048.302203037674,1671627277.526,509,97351,52418
132096,12048.309307521755,1671627277.526,509,97351,52418
132097,12048.316412005835,1671627277.526,509,97256,52398
132097,12048.323516489916,1671627277.526,509,97256,52398
132098,12048.330620973997,1671627277.526,509,97258,52385
132098,12048.337725458077,1671627277.526,509,97258,52385
132099,12048.344829942158,1671627277.526,509,97254,52378
132099,12048.351934426239,1671627277.526,509,97254,52378
132100,12048.35903891032,1671627277.526,508,97246,52370
132100,12048.3661433944,1671627277.526,508,97246,52370
132101,12048.37324787848,1671627277.526,508,97266,52375
132101,12048.380352362561,1671627277.526,508,97266,52375
132102,12048.40204284459,1671627277.624,508,97241,52370
132102,12048.409721949807,1671627277.624,508,97241,52370
132103,12048.417401055025,1671627277.624,507,97243,52385
132103,12048.425080160243,1671627277.624,507,97243,52385
132104,12048.43275926546,1671627277.624,507,97248,52374
132104,12048.440438370679,1671627277.624,507,97248,52374
132105,12048.448117475897,1671627277.624,508,97289,52380
132105,12048.455796581115,1671627277.624,508,97289,52380
132106,12048.463475686332,1671627277.624,509,97245,52387
132106,12048.47115479155,1671627277.624,509,97245,52387
132107,12048.478833896768,1671627277.624,509,97223,52382
132107,12048.486513001986,1671627277.624,509,97223,52382
132108,12048.494192107204,1671627277.713,509,97281,52388
132108,12048.501871212422,1671627277.713,509,97281,52388
132109,12048.50955031764,1671627277.713,509,97292,52377
132109,12048.517229422858,1671627277.713,509,97292,52377
132110,12048.524908528076,1671627277.713,509,97306,52386
132110,12048.532587633294,1671627277.713,509,97306,52386
132111,12048.540266738511,1671627277.713,509,97291,52377
132111,12048.54794584373,1671627277.713,509,97291,52377
132112,12048.558242539799,1671627277.713,509,97288,52392
132112,12048.565215433486,1671627277.713,509,97288,52392
132113,12048.572188327173,1671627277.713,507,97370,52393
132113,12048.57916122086,1671627277.713,507,97370,52393
132114,12048.586134114546,1671627277.806,509,97293,52372
132114,12048.593107008233,1671627277.806,509,97293,52372
132115,12048.60007990192,1671627277.806,509,97326,52381
132115,12048.607052795607,1671627277.806,509,97326,52381
132116,12048.614025689294,1671627277.806,509,97317,52406
132116,12048.620998582981,1671627277.806,509,97317,52406
132117,12048.627971476668,1671627277.806,509,97378,52397
132117,12048.634944370355,1671627277.806,509,97378,52397
132118,12048.641917264042,1671627277.806,510,97290,52398
132118,12048.648890157729,1671627277.806,510,97290,52398
132119,12048.655863051416,1671627277.806,509,97409,52405
132119,12048.662835945102,1671627277.806,509,97409,52405
132120,12048.66980883879,1671627277.897,509,97298,52397
132120,12048.676781732476,1671627277.897,509,97298,52397
132121,12048.683754626163,1671627277.897,509,97375,52405
132121,12048.69072751985,1671627277.897,509,97375,52405
132122,12048.711596938243,1671627277.897,507,97360,52403
132122,12048.718739345302,1671627277.897,507,97360,52403
132123,12048.725881752362,1671627277.897,508,97393,52433
132123,12048.73302415942,1671627277.897,508,97393,52433
132124,12048.74016656648,1671627277.897,510,97382,52414
132124,12048.74730897354,1671627277.897,510,97382,52414
132125,12048.754451380599,1671627277.897,511,97399,52413
132125,12048.761593787658,1671627277.897,511,97399,52413
132126,12048.768736194717,1671627277.993,508,97457,52431
132126,12048.775878601777,1671627277.993,508,97457,52431
132127,12048.783021008836,1671627277.993,510,97407,52424
132127,12048.790163415895,1671627277.993,510,97407,52424
132128,12048.797305822955,1671627277.993,510,97410,52419
132128,12048.804448230014,1671627277.993,510,97410,52419
132129,12048.811590637073,1671627277.993,508,97337,52396
132129,12048.818733044132,1671627277.993,508,97337,52396
132130,12048.825875451192,1671627277.993,509,97340,52378
132130,12048.833017858251,1671627277.993,509,97340,52378
132131,12048.84016026531,1671627277.993,508,97287,52383
132131,12048.84730267237,1671627277.993,508,97287,52383
132132,12048.868572546304,1671627278.084,512,97262,52346
132132,12048.87607843433,1671627278.084,512,97262,52346
132133,12048.883584322357,1671627278.084,509,97278,52374
132133,12048.891090210383,1671627278.084,509,97278,52374
132134,12048.89859609841,1671627278.084,509,97252,52349
132134,12048.906101986437,1671627278.084,509,97252,52349
132135,12048.913607874463,1671627278.084,510,97236,52366
132135,12048.92111376249,1671627278.084,510,97236,52366
132136,12048.928619650516,1671627278.084,508,97232,52362
132136,12048.936125538543,1671627278.084,508,97232,52362
132137,12048.94363142657,1671627278.084,508,97237,52371
132137,12048.951137314596,1671627278.084,508,97237,52371
132138,12048.958643202623,1671627278.188,509,97169,52320
132138,12048.96614909065,1671627278.188,509,97169,52320
132139,12048.973654978676,1671627278.188,507,97147,52344
132139,12048.981160866702,1671627278.188,507,97147,52344
132140,12048.988666754729,1671627278.188,510,97189,52328
132140,12048.996172642755,1671627278.188,510,97189,52328
132141,12049.003678530782,1671627278.188,509,97266,52353
132141,12049.011184418809,1671627278.188,509,97266,52353
132142,12049.02933579715,1671627278.188,510,97257,52333
132142,12049.037415041796,1671627278.188,510,97257,52333
132143,12049.045494286442,1671627278.188,508,97212,52329
132143,12049.053573531088,1671627278.188,508,97212,52329
132144,12049.061652775734,1671627278.279,510,97180,52325
132144,12049.06973202038,1671627278.279,510,97180,52325
132145,12049.077811265026,1671627278.279,508,97288,52358
132145,12049.085890509672,1671627278.279,508,97288,52358
132146,12049.093969754318,1671627278.279,508,97197,52337
132146,12049.102048998964,1671627278.279,508,97197,52337
132147,12049.11012824361,1671627278.279,508,97214,52335
132147,12049.118207488256,1671627278.279,508,97214,52335
132148,12049.126286732902,1671627278.279,508,97197,52314
132148,12049.134365977548,1671627278.279,508,97197,52314
132149,12049.142445222195,1671627278.279,509,97264,52353
132149,12049.15052446684,1671627278.279,509,97264,52353
132150,12049.158603711487,1671627278.37,510,97196,52338
132150,12049.166682956133,1671627278.37,510,97196,52338
132151,12049.174762200779,1671627278.37,509,97225,52333
132151,12049.182841445425,1671627278.37,509,97225,52333
132152,12049.184341329454,1671627278.37,508,97205,52337
132152,12049.191428642374,1671627278.37,508,97205,52337
132153,12049.198515955295,1671627278.37,507,97249,52331
132153,12049.205603268216,1671627278.37,507,97249,52331
132154,12049.212690581136,1671627278.37,508,97219,52319
132154,12049.219777894057,1671627278.37,508,97219,52319
132155,12049.226865206978,1671627278.37,509,97226,52322
132155,12049.233952519899,1671627278.37,509,97226,52322
132156,12049.24103983282,1671627278.461,508,97205,52311
132156,12049.24812714574,1671627278.461,508,97205,52311
132157,12049.25521445866,1671627278.461,508,97248,52332
132157,12049.262301771581,1671627278.461,508,97248,52332
132158,12049.269389084502,1671627278.461,509,97243,52342
132158,12049.276476397423,1671627278.461,509,97243,52342
132159,12049.283563710344,1671627278.461,508,97212,52334
132159,12049.290651023264,1671627278.461,508,97212,52334
132160,12049.297738336185,1671627278.461,507,97281,52356
132160,12049.304825649106,1671627278.461,507,97281,52356
132161,12049.311912962026,1671627278.461,508,97276,52348
132161,12049.319000274947,1671627278.461,508,97276,52348
132162,12049.335991845373,1671627278.555,507,97235,52341
132162,12049.343125726653,1671627278.555,507,97235,52341
132163,12049.350259607932,1671627278.555,507,97325,52349
132163,12049.357393489212,1671627278.555,507,97325,52349
132164,12049.364527370491,1671627278.555,508,97237,52370
132164,12049.371661251771,1671627278.555,508,97237,52370
132165,12049.37879513305,1671627278.555,508,97334,52363
132165,12049.38592901433,1671627278.555,508,97334,52363
132166,12049.39306289561,1671627278.555,508,97331,52375
132166,12049.400196776889,1671627278.555,508,97331,52375
132167,12049.407330658169,1671627278.555,509,97322,52363
132167,12049.414464539448,1671627278.555,509,97322,52363
132168,12049.421598420728,1671627278.648,507,97388,52404
132168,12049.428732302007,1671627278.648,507,97388,52404
132169,12049.435866183287,1671627278.648,508,97346,52375
132169,12049.443000064566,1671627278.648,508,97346,52375
132170,12049.450133945846,1671627278.648,508,97386,52372
132170,12049.457267827125,1671627278.648,508,97386,52372
132171,12049.464401708405,1671627278.648,508,97419,52410
132171,12049.471535589684,1671627278.648,508,97419,52410
132172,12049.492600892345,1671627278.648,508,97388,52412
132172,12049.499895073968,1671627278.648,508,97388,52412
132173,12049.507189255592,1671627278.648,508,97359,52389
132173,12049.514483437215,1671627278.648,508,97359,52389
132174,12049.521777618838,1671627278.741,508,97362,52393
132174,12049.529071800462,1671627278.741,508,97362,52393
132175,12049.536365982085,1671627278.741,508,97366,52395
132175,12049.543660163708,1671627278.741,508,97366,52395
132176,12049.550954345332,1671627278.741,508,97399,52417
132176,12049.558248526955,1671627278.741,508,97399,52417
132177,12049.565542708579,1671627278.741,507,97435,52417
132177,12049.572836890202,1671627278.741,507,97435,52417
132178,12049.580131071825,1671627278.741,508,97364,52394
132178,12049.587425253449,1671627278.741,508,97364,52394
132179,12049.594719435072,1671627278.741,508,97318,52362
132179,12049.602013616695,1671627278.741,508,97318,52362
132180,12049.609307798319,1671627278.832,509,97332,52384
132180,12049.616601979942,1671627278.832,509,97332,52384
132181,12049.623896161565,1671627278.832,509,97268,52344
132181,12049.631190343189,1671627278.832,509,97268,52344
132182,12049.646489844794,1671627278.832,507,97243,52339
132182,12049.653660086638,1671627278.832,507,97243,52339
132183,12049.660830328483,1671627278.832,508,97303,52355
132183,12049.668000570327,1671627278.832,508,97303,52355
132184,12049.675170812172,1671627278.832,509,97279,52350
132184,12049.682341054016,1671627278.832,509,97279,52350
132185,12049.689511295861,1671627278.832,508,97207,52327
132185,12049.696681537705,1671627278.832,508,97207,52327
132186,12049.70385177955,1671627278.925,509,97226,52350
132186,12049.711022021394,1671627278.925,509,97226,52350
132187,12049.718192263239,1671627278.925,508,97181,52332
132187,12049.725362505083,1671627278.925,508,97181,52332
132188,12049.732532746928,1671627278.925,508,97262,52339
132188,12049.739702988772,1671627278.925,508,97262,52339
132189,12049.746873230617,1671627278.925,510,97154,52328
132189,12049.754043472461,1671627278.925,510,97154,52328
132190,12049.761213714306,1671627278.925,509,97204,52329
132190,12049.76838395615,1671627278.925,509,97204,52329
132191,12049.775554197995,1671627278.925,508,97179,52330
132191,12049.78272443984,1671627278.925,508,97179,52330
132192,12049.800656868176,1671627279.028,509,97133,52324
132192,12049.807925391513,1671627279.028,509,97133,52324
132193,12049.81519391485,1671627279.028,509,97184,52337
132193,12049.822462438187,1671627279.028,509,97184,52337
132194,12049.829730961525,1671627279.028,509,97174,52340
132194,12049.836999484862,1671627279.028,509,97174,52340
132195,12049.844268008199,1671627279.028,509,97216,52336
132195,12049.851536531536,1671627279.028,509,97216,52336
132196,12049.858805054873,1671627279.028,508,97146,52341
132196,12049.86607357821,1671627279.028,508,97146,52341
132197,12049.873342101548,1671627279.028,509,97161,52336
132197,12049.880610624885,1671627279.028,509,97161,52336
132198,12049.887879148222,1671627279.118,509,97138,52320
132198,12049.89514767156,1671627279.118,509,97138,52320
132199,12049.902416194896,1671627279.118,509,97191,52346
132199,12049.909684718234,1671627279.118,509,97191,52346
132200,12049.91695324157,1671627279.118,509,97209,52325
132200,12049.924221764908,1671627279.118,509,97209,52325
132201,12049.931490288245,1671627279.118,508,97206,52315
132201,12049.938758811582,1671627279.118,508,97206,52315
132202,12049.963315688929,1671627279.118,507,97154,52327
132202,12049.970442365691,1671627279.118,507,97154,52327
132203,12049.977569042454,1671627279.118,508,97142,52343
132203,12049.984695719217,1671627279.118,508,97142,52343
132204,12049.99182239598,1671627279.21,509,97176,52306
132204,12049.998949072742,1671627279.21,509,97176,52306
132205,12050.006075749505,1671627279.21,509,97172,52310
132205,12050.013202426268,1671627279.21,509,97172,52310
132206,12050.02032910303,1671627279.21,508,97219,52330
132206,12050.027455779793,1671627279.21,508,97219,52330
132207,12050.034582456556,1671627279.21,510,97283,52336
132207,12050.041709133318,1671627279.21,510,97283,52336
132208,12050.048835810081,1671627279.21,508,97199,52332
132208,12050.055962486844,1671627279.21,508,97199,52332
132209,12050.063089163606,1671627279.21,508,97206,52323
132209,12050.07021584037,1671627279.21,508,97206,52323
132210,12050.077342517132,1671627279.308,508,97283,52350
132210,12050.084469193895,1671627279.308,508,97283,52350
132211,12050.091595870657,1671627279.308,509,97239,52349
132211,12050.09872254742,1671627279.308,509,97239,52349
132212,12050.118245072508,1671627279.308,510,97206,52349
132212,12050.125769267726,1671627279.308,510,97206,52349
132213,12050.133293462944,1671627279.308,509,97196,52365
132213,12050.140817658163,1671627279.308,509,97196,52365
132214,12050.14834185338,1671627279.308,509,97318,52359
132214,12050.155866048599,1671627279.308,509,97318,52359
132215,12050.163390243817,1671627279.308,508,97304,52360
132215,12050.170914439035,1671627279.308,508,97304,52360
132216,12050.178438634253,1671627279.396,509,97299,52367
132216,12050.185962829471,1671627279.396,509,97299,52367
132217,12050.19348702469,1671627279.396,507,97269,52369
132217,12050.201011219908,1671627279.396,507,97269,52369
132218,12050.208535415126,1671627279.396,509,97314,52378
132218,12050.216059610344,1671627279.396,509,97314,52378
132219,12050.223583805562,1671627279.396,508,97294,52366
132219,12050.23110800078,1671627279.396,508,97294,52366
132220,12050.238632195998,1671627279.396,508,97353,52386
132220,12050.246156391217,1671627279.396,508,97353,52386
132221,12050.253680586435,1671627279.396,509,97321,52391
132221,12050.261204781653,1671627279.396,509,97321,52391
132222,12050.271340591202,1671627279.51,508,97353,52385
132222,12050.2782452676,1671627279.51,508,97353,52385
132223,12050.285149943998,1671627279.51,510,97296,52395
132223,12050.292054620397,1671627279.51,510,97296,52395
132224,12050.298959296795,1671627279.51,508,97411,52404
132224,12050.305863973193,1671627279.51,508,97411,52404
132225,12050.312768649592,1671627279.51,508,97385,52398
132225,12050.31967332599,1671627279.51,508,97385,52398
132226,12050.326578002388,1671627279.51,508,97415,52415
132226,12050.333482678787,1671627279.51,508,97415,52415
132227,12050.340387355185,1671627279.51,508,97431,52414
132227,12050.347292031583,1671627279.51,508,97431,52414
132228,12050.354196707982,1671627279.583,509,97409,52420
132228,12050.36110138438,1671627279.583,509,97409,52420
132229,12050.368006060778,1671627279.583,508,97413,52415
132229,12050.374910737177,1671627279.583,508,97413,52415
132230,12050.381815413575,1671627279.583,508,97395,52425
132230,12050.388720089974,1671627279.583,508,97395,52425
132231,12050.395624766372,1671627279.583,509,97391,52395
132231,12050.40252944277,1671627279.583,509,97391,52395
132232,12050.432246425233,1671627279.583,509,97361,52400
132232,12050.43813068181,1671627279.583,509,97361,52400
132233,12050.444014938388,1671627279.583,509,97212,52371
132233,12050.449899194966,1671627279.583,509,97212,52371
132234,12050.455783451544,1671627279.689,508,97290,52368
132234,12050.461667708121,1671627279.689,508,97290,52368
132235,12050.467551964699,1671627279.689,510,97250,52357
132235,12050.473436221277,1671627279.689,510,97250,52357
132236,12050.479320477854,1671627279.689,510,97240,52348
132236,12050.485204734432,1671627279.689,510,97240,52348
132237,12050.49108899101,1671627279.689,509,97283,52373
132237,12050.496973247587,1671627279.689,509,97283,52373
132238,12050.502857504165,1671627279.689,508,97258,52352
132238,12050.508741760743,1671627279.689,508,97258,52352
132239,12050.51462601732,1671627279.689,510,97197,52352
132239,12050.520510273898,1671627279.689,510,97197,52352
132240,12050.526394530476,1671627279.776,509,97298,52364
132240,12050.532278787054,1671627279.776,509,97298,52364
132241,12050.538163043631,1671627279.776,507,97234,52339
132241,12050.544047300209,1671627279.776,507,97234,52339
132242,12050.593743387577,1671627279.776,508,97245,52363
132242,12050.600970792713,1671627279.776,508,97245,52363
132243,12050.60819819785,1671627279.776,508,97211,52317
132243,12050.615425602986,1671627279.776,508,97211,52317
132244,12050.622653008122,1671627279.776,509,97180,52329
132244,12050.629880413258,1671627279.776,509,97180,52329
132245,12050.637107818395,1671627279.776,509,97216,52350
132245,12050.644335223531,1671627279.776,509,97216,52350
132246,12050.651562628667,1671627279.869,508,97285,52373
132246,12050.658790033804,1671627279.869,508,97285,52373
132247,12050.66601743894,1671627279.869,507,97294,52349
132247,12050.673244844076,1671627279.869,507,97294,52349
132248,12050.680472249212,1671627279.869,509,97235,52354
132248,12050.687699654349,1671627279.869,509,97235,52354
132249,12050.694927059485,1671627279.869,509,97273,52363
132249,12050.702154464621,1671627279.869,509,97273,52363
132250,12050.709381869758,1671627279.869,507,97175,52337
132250,12050.716609274894,1671627279.869,507,97175,52337
132251,12050.72383668003,1671627279.869,509,97203,52345
132251,12050.731064085167,1671627279.869,509,97203,52345
132252,12050.743956913055,1671627279.959,509,97174,52325
132252,12050.751191345897,1671627279.959,509,97174,52325
132253,12050.758425778738,1671627279.959,509,97285,52360
132253,12050.76566021158,1671627279.959,509,97285,52360
132254,12050.772894644422,1671627279.959,511,97198,52333
132254,12050.780129077264,1671627279.959,511,97198,52333
132255,12050.787363510106,1671627279.959,509,97238,52352
132255,12050.794597942948,1671627279.959,509,97238,52352
132256,12050.80183237579,1671627279.959,508,97147,52332
132256,12050.809066808632,1671627279.959,508,97147,52332
132257,12050.816301241473,1671627279.959,507,97185,52336
132257,12050.823535674315,1671627279.959,507,97185,52336
132258,12050.830770107157,1671627280.054,508,97129,52333
132258,12050.838004539999,1671627280.054,508,97129,52333
132259,12050.84523897284,1671627280.054,507,97234,52341
132259,12050.852473405683,1671627280.054,507,97234,52341
132260,12050.859707838525,1671627280.054,509,97187,52336
132260,12050.866942271366,1671627280.054,509,97187,52336
132261,12050.874176704208,1671627280.054,510,97218,52369
132261,12050.88141113705,1671627280.054,510,97218,52369
132262,12050.897606173703,1671627280.054,508,97214,52357
132262,12050.90495286071,1671627280.054,508,97214,52357
132263,12050.912299547717,1671627280.054,509,97244,52352
132263,12050.919646234724,1671627280.054,509,97244,52352
132264,12050.926992921732,1671627280.149,508,97279,52359
132264,12050.934339608739,1671627280.149,508,97279,52359
132265,12050.941686295746,1671627280.149,507,97221,52354
132265,12050.949032982753,1671627280.149,507,97221,52354
132266,12050.95637966976,1671627280.149,507,97224,52356
132266,12050.963726356767,1671627280.149,507,97224,52356
132267,12050.971073043775,1671627280.149,507,97265,52369
132267,12050.978419730782,1671627280.149,507,97265,52369
132268,12050.985766417789,1671627280.149,508,97322,52393
132268,12050.993113104796,1671627280.149,508,97322,52393
132269,12051.000459791803,1671627280.149,507,97333,52403
132269,12051.00780647881,1671627280.149,507,97333,52403
132270,12051.015153165818,1671627280.24,508,97337,52398
132270,12051.022499852825,1671627280.24,508,97337,52398
132271,12051.029846539832,1671627280.24,510,97291,52380
132271,12051.037193226839,1671627280.24,510,97291,52380
132272,12051.054484161188,1671627280.24,508,97339,52395
132272,12051.061700669783,1671627280.24,508,97339,52395
132273,12051.068917178378,1671627280.24,509,97360,52401
132273,12051.076133686973,1671627280.24,509,97360,52401
132274,12051.083350195568,1671627280.24,507,97405,52392
132274,12051.090566704162,1671627280.24,507,97405,52392
132275,12051.097783212757,1671627280.24,508,97445,52402
132275,12051.104999721352,1671627280.24,508,97445,52402
132276,12051.112216229947,1671627280.336,509,97298,52382
132276,12051.119432738542,1671627280.336,509,97298,52382
132277,12051.126649247137,1671627280.336,508,97362,52383
132277,12051.133865755732,1671627280.336,508,97362,52383
132278,12051.141082264327,1671627280.336,509,97386,52415
132278,12051.148298772921,1671627280.336,509,97386,52415
132279,12051.155515281516,1671627280.336,508,97357,52406
132279,12051.162731790111,1671627280.336,508,97357,52406
132280,12051.169948298706,1671627280.336,508,97403,52410
132280,12051.1771648073,1671627280.336,508,97403,52410
132281,12051.184381315896,1671627280.336,508,97370,52418
132281,12051.19159782449,1671627280.336,508,97370,52418
132282,12051.21147759454,1671627280.441,508,97335,52428
132282,12051.21896594746,1671627280.441,508,97335,52428
132283,12051.226454300382,1671627280.441,508,97454,52452
132283,12051.233942653304,1671627280.441,508,97454,52452
132284,12051.241431006225,1671627280.441,509,97450,52448
132284,12051.248919359146,1671627280.441,509,97450,52448
132285,12051.256407712068,1671627280.441,508,97437,52454
132285,12051.26389606499,1671627280.441,508,97437,52454
132286,12051.27138441791,1671627280.441,508,97487,52467
132286,12051.278872770832,1671627280.441,508,97487,52467
132287,12051.286361123754,1671627280.441,508,97466,52423
132287,12051.293849476675,1671627280.441,508,97466,52423
132288,12051.301337829596,1671627280.526,508,97335,52400
132288,12051.308826182518,1671627280.526,508,97335,52400
132289,12051.31631453544,1671627280.526,508,97371,52410
132289,12051.32380288836,1671627280.526,508,97371,52410
132290,12051.331291241282,1671627280.526,507,97309,52389
132290,12051.338779594204,1671627280.526,507,97309,52389
132291,12051.346267947125,1671627280.526,507,97321,52394
132291,12051.353756300046,1671627280.526,507,97321,52394
132292,12051.372310818797,1671627280.526,509,97323,52375
132292,12051.378988259115,1671627280.526,509,97323,52375
132293,12051.385665699434,1671627280.526,508,97307,52385
132293,12051.392343139752,1671627280.526,508,97307,52385
132294,12051.399020580071,1671627280.62,508,97349,52389
132294,12051.40569802039,1671627280.62,508,97349,52389
132295,12051.412375460708,1671627280.62,508,97282,52371
132295,12051.419052901027,1671627280.62,508,97282,52371
132296,12051.425730341345,1671627280.62,507,97289,52369
132296,12051.432407781664,1671627280.62,507,97289,52369
132297,12051.439085221982,1671627280.62,507,97294,52365
132297,12051.4457626623,1671627280.62,507,97294,52365
132298,12051.45244010262,1671627280.62,509,97247,52386
132298,12051.459117542938,1671627280.62,509,97247,52386
132299,12051.465794983256,1671627280.62,508,97245,52369
132299,12051.472472423575,1671627280.62,508,97245,52369
132300,12051.479149863893,1671627280.709,508,97256,52361
132300,12051.485827304212,1671627280.709,508,97256,52361
132301,12051.49250474453,1671627280.709,509,97229,52367
132301,12051.499182184849,1671627280.709,509,97229,52367
132302,12051.524745264274,1671627280.709,508,97301,52381
132302,12051.531822388117,1671627280.709,508,97301,52381
132303,12051.53889951196,1671627280.709,509,97330,52376
132303,12051.545976635802,1671627280.709,509,97330,52376
132304,12051.553053759644,1671627280.709,508,97273,52364
132304,12051.560130883487,1671627280.709,508,97273,52364
132305,12051.56720800733,1671627280.709,508,97284,52356
132305,12051.574285131172,1671627280.709,508,97284,52356
132306,12051.581362255014,1671627280.795,509,97279,52361
132306,12051.588439378856,1671627280.795,509,97279,52361
132307,12051.595516502699,1671627280.795,509,97270,52350
132307,12051.602593626541,1671627280.795,509,97270,52350
132308,12051.609670750384,1671627280.795,507,97312,52353
132308,12051.616747874226,1671627280.795,507,97312,52353
132309,12051.623824998069,1671627280.795,508,97162,52341
132309,12051.630902121911,1671627280.795,508,97162,52341
132310,12051.637979245754,1671627280.795,509,97241,52355
132310,12051.645056369596,1671627280.795,509,97241,52355
132311,12051.652133493439,1671627280.795,508,97208,52349
132311,12051.659210617281,1671627280.795,508,97208,52349
132312,12051.669789010932,1671627280.897,509,97276,52344
132312,12051.67652237647,1671627280.897,509,97276,52344
132313,12051.68325574201,1671627280.897,508,97294,52363
132313,12051.689989107548,1671627280.897,508,97294,52363
132314,12051.696722473087,1671627280.897,508,97279,52334
132314,12051.703455838626,1671627280.897,508,97279,52334
132315,12051.710189204165,1671627280.897,508,97250,52360
132315,12051.716922569703,1671627280.897,508,97250,52360
132316,12051.723655935242,1671627280.897,509,97237,52338
132316,12051.730389300781,1671627280.897,509,97237,52338
132317,12051.73712266632,1671627280.897,508,97240,52351
132317,12051.743856031859,1671627280.897,508,97240,52351
132318,12051.750589397398,1671627280.992,508,97276,52359
132318,12051.757322762936,1671627280.992,508,97276,52359
132319,12051.764056128475,1671627280.992,510,97190,52349
132319,12051.770789494014,1671627280.992,510,97190,52349
132320,12051.777522859553,1671627280.992,509,97322,52373
132320,12051.784256225092,1671627280.992,509,97322,52373
132321,12051.79098959063,1671627280.992,509,97297,52346
132321,12051.79772295617,1671627280.992,509,97297,52346
132322,12051.8359837138,1671627280.992,508,97314,52382
132322,12051.843395915625,1671627280.992,508,97314,52382
132323,12051.85080811745,1671627280.992,509,97305,52371
132323,12051.858220319275,1671627280.992,509,97305,52371
132324,12051.8656325211,1671627281.084,507,97419,52398
132324,12051.873044722925,1671627281.084,507,97419,52398
132325,12051.88045692475,1671627281.084,509,97371,52372
132325,12051.887869126575,1671627281.084,509,97371,52372
132326,12051.8952813284,1671627281.084,508,97382,52381
132326,12051.902693530224,1671627281.084,508,97382,52381
132327,12051.91010573205,1671627281.084,510,97300,52371
132327,12051.917517933874,1671627281.084,510,97300,52371
132328,12051.9249301357,1671627281.084,508,97408,52410
132328,12051.932342337524,1671627281.084,508,97408,52410
132329,12051.93975453935,1671627281.084,510,97325,52383
132329,12051.947166741174,1671627281.084,510,97325,52383
132330,12051.954578943,1671627281.177,509,97377,52393
132330,12051.961991144824,1671627281.177,509,97377,52393
132331,12051.96940334665,1671627281.177,509,97391,52421
132331,12051.976815548474,1671627281.177,509,97391,52421
132332,12051.990396383992,1671627281.177,509,97348,52395
132332,12051.9976618279,1671627281.177,509,97348,52395
132333,12052.004927271808,1671627281.177,509,97381,52395
132333,12052.012192715716,1671627281.177,509,97381,52395
132334,12052.019458159624,1671627281.177,510,97424,52417
132334,12052.026723603532,1671627281.177,510,97424,52417
132335,12052.03398904744,1671627281.177,509,97389,52417
132335,12052.041254491349,1671627281.177,509,97389,52417
132336,12052.048519935257,1671627281.273,509,97411,52422
132336,12052.055785379165,1671627281.273,509,97411,52422
132337,12052.063050823073,1671627281.273,509,97483,52415
132337,12052.070316266982,1671627281.273,509,97483,52415
132338,12052.07758171089,1671627281.273,507,97439,52455
132338,12052.084847154798,1671627281.273,507,97439,52455
132339,12052.092112598706,1671627281.273,509,97448,52434
132339,12052.099378042614,1671627281.273,509,97448,52434
132340,12052.106643486522,1671627281.273,508,97418,52450
132340,12052.11390893043,1671627281.273,508,97418,52450
132341,12052.121174374339,1671627281.273,509,97474,52430
132341,12052.128439818247,1671627281.273,509,97474,52430
132342,12052.149058062065,1671627281.371,510,97427,52421
132342,12052.156561812033,1671627281.371,510,97427,52421
132343,12052.164065562001,1671627281.371,510,97446,52430
132343,12052.17156931197,1671627281.371,510,97446,52430
132344,12052.179073061938,1671627281.371,510,97358,52386
132344,12052.186576811906,1671627281.371,510,97358,52386
132345,12052.194080561874,1671627281.371,508,97333,52391
132345,12052.201584311842,1671627281.371,508,97333,52391
132346,12052.20908806181,1671627281.371,508,97359,52383
132346,12052.216591811779,1671627281.371,508,97359,52383
132347,12052.224095561747,1671627281.371,510,97345,52396
132347,12052.231599311715,1671627281.371,510,97345,52396
132348,12052.239103061684,1671627281.465,510,97354,52390
132348,12052.246606811652,1671627281.465,510,97354,52390
132349,12052.25411056162,1671627281.465,508,97286,52383
132349,12052.261614311588,1671627281.465,508,97286,52383
132350,12052.269118061557,1671627281.465,508,97266,52367
132350,12052.276621811525,1671627281.465,508,97266,52367
132351,12052.284125561493,1671627281.465,510,97254,52371
132351,12052.291629311461,1671627281.465,510,97254,52371
132352,12052.309398505871,1671627281.465,508,97333,52373
132352,12052.316774454564,1671627281.465,508,97333,52373
132353,12052.324150403258,1671627281.465,509,97253,52343
132353,12052.33152635195,1671627281.465,509,97253,52343
132354,12052.338902300644,1671627281.552,508,97285,52359
132354,12052.346278249337,1671627281.552,508,97285,52359
132355,12052.35365419803,1671627281.552,510,97186,52343
132355,12052.361030146723,1671627281.552,510,97186,52343
132356,12052.368406095417,1671627281.552,509,97218,52344
132356,12052.37578204411,1671627281.552,509,97218,52344
132357,12052.383157992803,1671627281.552,510,97283,52357
132357,12052.390533941496,1671627281.552,510,97283,52357
132358,12052.39790989019,1671627281.552,509,97335,52377
