id,lsl_ts,unix_ts,ambient,ir,red
79074,10869.2816489,1671626098.43,531,111381,69478
79074,10869.2816489,1671626098.43,531,111381,69478
79075,10869.2847138,1671626098.43,509,123900,71063
79075,10869.2847138,1671626098.43,509,123900,71063
79076,10869.2877787,1671626098.43,508,124054,71080
79076,10869.2877787,1671626098.43,508,124054,71080
79077,10869.2908436,1671626098.43,509,124025,71115
79077,10869.2908436,1671626098.43,509,124025,71115
79078,10869.2939085,1671626098.43,507,124127,71122
79078,10869.2939085,1671626098.43,507,124127,71122
79079,10869.2969734,1671626098.43,506,124187,71149
79079,10869.2969734,1671626098.43,506,124187,71149
79080,10869.309413966666,1671626098.505,508,124212,71182
79080,10869.309413966666,1671626098.505,508,124212,71182
79081,10869.321854533333,1671626098.505,507,124241,71184
79081,10869.321854533333,1671626098.505,507,124241,71184
79082,10869.3342951,1671626098.505,508,124251,71210
79082,10869.3342951,1671626098.505,508,124251,71210
79083,10869.346735666666,1671626098.505,508,124221,71178
79083,10869.346735666666,1671626098.505,508,124221,71178
79084,10869.359176233333,1671626098.505,508,124258,71219
79084,10869.359176233333,1671626098.505,508,124258,71219
79085,10869.3716168,1671626098.505,506,124246,71195
79085,10869.3716168,1671626098.505,506,124246,71195
79086,10869.377766633334,1671626098.542,507,124299,71208
79086,10869.377766633334,1671626098.542,507,124299,71208
79087,10869.383916466666,1671626098.542,508,124280,71247
79087,10869.383916466666,1671626098.542,508,124280,71247
79088,10869.390066299999,1671626098.542,508,124347,71270
79088,10869.390066299999,1671626098.542,508,124347,71270
79089,10869.396216133333,1671626098.542,508,124409,71260
79089,10869.396216133333,1671626098.542,508,124409,71260
79090,10869.402365966667,1671626098.542,507,124431,71285
79090,10869.402365966667,1671626098.542,507,124431,71285
79091,10869.4085158,1671626098.542,507,124493,71295
79091,10869.4085158,1671626098.542,507,124493,71295
79092,10869.42425145,1671626098.636,505,124417,71280
79092,10869.42425145,1671626098.636,505,124417,71280
79093,10869.4399871,1671626098.636,506,124330,71268
79093,10869.4399871,1671626098.636,506,124330,71268
79094,10869.45572275,1671626098.636,507,124173,71210
79094,10869.45572275,1671626098.636,507,124173,71210
79095,10869.4714584,1671626098.636,507,124076,71123
79095,10869.4714584,1671626098.636,507,124076,71123
79096,10869.48719405,1671626098.636,508,123919,71112
79096,10869.48719405,1671626098.636,508,123919,71112
79097,10869.5029297,1671626098.636,508,123838,71091
79097,10869.5029297,1671626098.636,508,123838,71091
79098,10869.518212716666,1671626098.728,507,123868,71095
79098,10869.518212716666,1671626098.728,507,123868,71095
79099,10869.533495733333,1671626098.728,506,123804,71076
79099,10869.533495733333,1671626098.728,506,123804,71076
79100,10869.548778749999,1671626098.728,507,123824,71058
79100,10869.548778749999,1671626098.728,507,123824,71058
79101,10869.564061766667,1671626098.728,507,123727,71085
79101,10869.564061766667,1671626098.728,507,123727,71085
79102,10869.579344783333,1671626098.728,506,123766,71070
79102,10869.579344783333,1671626098.728,506,123766,71070
79103,10869.5946278,1671626098.728,507,123711,71084
79103,10869.5946278,1671626098.728,507,123711,71084
79104,10869.610674883334,1671626098.824,508,123845,71087
79104,10869.610674883334,1671626098.824,508,123845,71087
79105,10869.626721966666,1671626098.824,509,123772,71101
79105,10869.626721966666,1671626098.824,509,123772,71101
79106,10869.642769049999,1671626098.824,508,123772,71068
79106,10869.642769049999,1671626098.824,508,123772,71068
79107,10869.658816133333,1671626098.824,507,123782,71081
79107,10869.658816133333,1671626098.824,507,123782,71081
79108,10869.674863216667,1671626098.824,507,123799,71100
79108,10869.674863216667,1671626098.824,507,123799,71100
79109,10869.6909103,1671626098.824,506,123816,71101
79109,10869.6909103,1671626098.824,506,123816,71101
79110,10869.708084083333,1671626098.927,507,123919,71115
79110,10869.708084083333,1671626098.927,507,123919,71115
79111,10869.725257866667,1671626098.927,507,123981,71124
79111,10869.725257866667,1671626098.927,507,123981,71124
79112,10869.74243165,1671626098.927,507,123920,71130
79112,10869.74243165,1671626098.927,507,123920,71130
79113,10869.759605433333,1671626098.927,506,123958,71123
79113,10869.759605433333,1671626098.927,506,123958,71123
79114,10869.776779216667,1671626098.927,507,123978,71132
79114,10869.776779216667,1671626098.927,507,123978,71132
79115,10869.793953,1671626098.927,508,123875,71117
79115,10869.793953,1671626098.927,508,123875,71117
79116,10869.810921,1671626099.029,507,123939,71127
79116,10869.810921,1671626099.029,507,123939,71127
79117,10869.827889,1671626099.029,507,123959,71145
79117,10869.827889,1671626099.029,507,123959,71145
79118,10869.844857,1671626099.029,509,123980,71144
79118,10869.844857,1671626099.029,509,123980,71144
79119,10869.861825,1671626099.029,506,123988,71137
79119,10869.861825,1671626099.029,506,123988,71137
79120,10869.878793,1671626099.029,507,124061,71167
79120,10869.878793,1671626099.029,507,124061,71167
79121,10869.895761,1671626099.029,507,124037,71168
79121,10869.895761,1671626099.029,507,124037,71168
79122,10869.909978016667,1671626099.114,508,124039,71169
79122,10869.909978016667,1671626099.114,508,124039,71169
79123,10869.924195033333,1671626099.114,508,123952,71181
79123,10869.924195033333,1671626099.114,508,123952,71181
79124,10869.93841205,1671626099.114,507,123991,71185
79124,10869.93841205,1671626099.114,507,123991,71185
79125,10869.952629066667,1671626099.114,508,124011,71177
79125,10869.952629066667,1671626099.114,508,124011,71177
79126,10869.966846083333,1671626099.114,506,123988,71183
79126,10869.966846083333,1671626099.114,506,123988,71183
79127,10869.9810631,1671626099.114,508,124041,71185
79127,10869.9810631,1671626099.114,508,124041,71185
79128,10869.995112183333,1671626099.199,506,124105,71219
79128,10869.995112183333,1671626099.199,506,124105,71219
79129,10870.009161266667,1671626099.199,507,123956,71208
79129,10870.009161266667,1671626099.199,507,123956,71208
79130,10870.02321035,1671626099.199,506,124003,71204
79130,10870.02321035,1671626099.199,506,124003,71204
79131,10870.037259433333,1671626099.199,507,123989,71235
79131,10870.037259433333,1671626099.199,507,123989,71235
79132,10870.051308516668,1671626099.199,506,123976,71220
79132,10870.051308516668,1671626099.199,506,123976,71220
79133,10870.0653576,1671626099.199,507,123974,71233
79133,10870.0653576,1671626099.199,507,123974,71233
79134,10870.081767466667,1671626099.297,506,123950,71238
79134,10870.081767466667,1671626099.297,506,123950,71238
79135,10870.098177333333,1671626099.297,507,123965,71211
79135,10870.098177333333,1671626099.297,507,123965,71211
79136,10870.114587200002,1671626099.297,508,123942,71217
79136,10870.114587200002,1671626099.297,508,123942,71217
79137,10870.130997066668,1671626099.297,508,123871,71164
79137,10870.130997066668,1671626099.297,508,123871,71164
79138,10870.147406933334,1671626099.297,506,123810,71162
79138,10870.147406933334,1671626099.297,506,123810,71162
79139,10870.1638168,1671626099.297,507,123692,71105
79139,10870.1638168,1671626099.297,507,123692,71105
79140,10870.180413216667,1671626099.397,506,123636,71074
79140,10870.180413216667,1671626099.397,506,123636,71074
79141,10870.197009633333,1671626099.397,506,123537,71023
79141,10870.197009633333,1671626099.397,506,123537,71023
79142,10870.213606050002,1671626099.397,506,123425,71011
79142,10870.213606050002,1671626099.397,506,123425,71011
79143,10870.230202466668,1671626099.397,506,123403,70994
79143,10870.230202466668,1671626099.397,506,123403,70994
79144,10870.246798883334,1671626099.397,506,123338,70986
79144,10870.246798883334,1671626099.397,506,123338,70986
79145,10870.2633953,1671626099.397,506,123346,70974
79145,10870.2633953,1671626099.397,506,123346,70974
79146,10870.276906466666,1671626099.478,507,123315,70973
79146,10870.276906466666,1671626099.478,507,123315,70973
79147,10870.290417633334,1671626099.478,506,123294,70982
79147,10870.290417633334,1671626099.478,506,123294,70982
79148,10870.3039288,1671626099.478,505,123243,70963
79148,10870.3039288,1671626099.478,505,123243,70963
79149,10870.317439966666,1671626099.478,506,123218,70939
79149,10870.317439966666,1671626099.478,506,123218,70939
79150,10870.330951133334,1671626099.478,505,123230,70952
79150,10870.330951133334,1671626099.478,505,123230,70952
79151,10870.3444623,1671626099.478,506,123213,70944
79151,10870.3444623,1671626099.478,506,123213,70944
79152,10870.361162416666,1671626099.578,506,123175,70906
79152,10870.361162416666,1671626099.578,506,123175,70906
79153,10870.377862533333,1671626099.578,506,123203,70949
79153,10870.377862533333,1671626099.578,506,123203,70949
79154,10870.394562649999,1671626099.578,506,123239,70933
79154,10870.394562649999,1671626099.578,506,123239,70933
79155,10870.411262766667,1671626099.578,506,123242,70957
79155,10870.411262766667,1671626099.578,506,123242,70957
79156,10870.427962883334,1671626099.578,503,123188,70927
79156,10870.427962883334,1671626099.578,503,123188,70927
79157,10870.444663,1671626099.578,505,123218,70933
79157,10870.444663,1671626099.578,505,123218,70933
79158,10870.46090315,1671626099.675,507,123178,70895
79158,10870.46090315,1671626099.675,507,123178,70895
79159,10870.4771433,1671626099.675,505,123216,70916
79159,10870.4771433,1671626099.675,505,123216,70916
79160,10870.49338345,1671626099.675,507,123198,70912
79160,10870.49338345,1671626099.675,507,123198,70912
79161,10870.509623599999,1671626099.675,505,123202,70915
79161,10870.509623599999,1671626099.675,505,123202,70915
79162,10870.52586375,1671626099.675,506,123182,70913
79162,10870.52586375,1671626099.675,506,123182,70913
79163,10870.5421039,1671626099.675,506,123235,70927
79163,10870.5421039,1671626099.675,506,123235,70927
79164,10870.555846283332,1671626099.758,505,123249,70914
79164,10870.555846283332,1671626099.758,505,123249,70914
79165,10870.569588666665,1671626099.758,506,123244,70922
79165,10870.569588666665,1671626099.758,506,123244,70922
79166,10870.583331049998,1671626099.758,505,123276,70942
79166,10870.583331049998,1671626099.758,505,123276,70942
79167,10870.597073433333,1671626099.758,505,123338,70922
79167,10870.597073433333,1671626099.758,505,123338,70922
79168,10870.610815816666,1671626099.758,507,123378,70947
79168,10870.610815816666,1671626099.758,507,123378,70947
79169,10870.6245582,1671626099.758,507,123399,70948
79169,10870.6245582,1671626099.758,507,123399,70948
79170,10870.640124816666,1671626099.851,507,123372,70961
79170,10870.640124816666,1671626099.851,507,123372,70961
79171,10870.655691433332,1671626099.851,505,123442,70980
79171,10870.655691433332,1671626099.851,505,123442,70980
79172,10870.671258049999,1671626099.851,506,123407,70965
79172,10870.671258049999,1671626099.851,506,123407,70965
79173,10870.686824666667,1671626099.851,506,123452,70967
79173,10870.686824666667,1671626099.851,506,123452,70967
79174,10870.702391283334,1671626099.851,506,123446,70986
79174,10870.702391283334,1671626099.851,506,123446,70986
79175,10870.7179579,1671626099.851,505,123420,71013
79175,10870.7179579,1671626099.851,505,123420,71013
79176,10870.733766783334,1671626099.946,505,123506,71022
79176,10870.733766783334,1671626099.946,505,123506,71022
79177,10870.749575666667,1671626099.946,506,123534,71016
79177,10870.749575666667,1671626099.946,506,123534,71016
79178,10870.765384549999,1671626099.946,506,123494,71005
79178,10870.765384549999,1671626099.946,506,123494,71005
79179,10870.781193433333,1671626099.946,506,123549,71000
79179,10870.781193433333,1671626099.946,506,123549,71000
79180,10870.797002316667,1671626099.946,508,123466,70981
79180,10870.797002316667,1671626099.946,508,123466,70981
79181,10870.8128112,1671626099.946,507,123360,70938
79181,10870.8128112,1671626099.946,507,123360,70938
79182,10870.829606233332,1671626100.047,507,123294,70898
79182,10870.829606233332,1671626100.047,507,123294,70898
79183,10870.846401266666,1671626100.047,505,123216,70859
79183,10870.846401266666,1671626100.047,505,123216,70859
79184,10870.8631963,1671626100.047,507,123038,70847
79184,10870.8631963,1671626100.047,507,123038,70847
79185,10870.879991333333,1671626100.047,506,123063,70842
79185,10870.879991333333,1671626100.047,506,123063,70842
79186,10870.896786366666,1671626100.047,508,123044,70834
79186,10870.896786366666,1671626100.047,508,123044,70834
79187,10870.9135814,1671626100.047,507,123026,70825
79187,10870.9135814,1671626100.047,507,123026,70825
79188,10870.929153933334,1671626100.14,506,123065,70796
79188,10870.929153933334,1671626100.14,506,123065,70796
79189,10870.944726466667,1671626100.14,507,122997,70796
79189,10870.944726466667,1671626100.14,507,122997,70796
79190,10870.960299,1671626100.14,505,123017,70808
79190,10870.960299,1671626100.14,505,123017,70808
79191,10870.975871533334,1671626100.14,506,122956,70801
79191,10870.975871533334,1671626100.14,506,122956,70801
79192,10870.991444066667,1671626100.14,507,122967,70795
79192,10870.991444066667,1671626100.14,507,122967,70795
79193,10871.0070166,1671626100.14,506,122907,70788
79193,10871.0070166,1671626100.14,506,122907,70788
79194,10871.023326316666,1671626100.238,506,123052,70809
79194,10871.023326316666,1671626100.238,506,123052,70809
79195,10871.039636033334,1671626100.238,506,123044,70820
79195,10871.039636033334,1671626100.238,506,123044,70820
79196,10871.05594575,1671626100.238,505,123017,70812
79196,10871.05594575,1671626100.238,505,123017,70812
79197,10871.072255466666,1671626100.238,506,123062,70822
79197,10871.072255466666,1671626100.238,506,123062,70822
79198,10871.088565183334,1671626100.238,506,123106,70858
79198,10871.088565183334,1671626100.238,506,123106,70858
79199,10871.1048749,1671626100.238,506,123138,70838
79199,10871.1048749,1671626100.238,506,123138,70838
79200,10871.12013085,1671626100.33,505,123090,70874
79200,10871.12013085,1671626100.33,505,123090,70874
79201,10871.1353868,1671626100.33,507,123070,70828
79201,10871.1353868,1671626100.33,507,123070,70828
79202,10871.150642749999,1671626100.33,506,123073,70835
79202,10871.150642749999,1671626100.33,506,123073,70835
79203,10871.1658987,1671626100.33,507,123128,70818
79203,10871.1658987,1671626100.33,507,123128,70818
79204,10871.18115465,1671626100.33,505,123134,70839
79204,10871.18115465,1671626100.33,505,123134,70839
79205,10871.1964106,1671626100.33,506,123156,70848
79205,10871.1964106,1671626100.33,506,123156,70848
79206,10871.2125685,1671626100.427,504,123117,70837
79206,10871.2125685,1671626100.427,504,123117,70837
79207,10871.2287264,1671626100.427,507,123141,70834
79207,10871.2287264,1671626100.427,507,123141,70834
79208,10871.2448843,1671626100.427,506,123201,70859
79208,10871.2448843,1671626100.427,506,123201,70859
79209,10871.2610422,1671626100.427,507,123202,70862
79209,10871.2610422,1671626100.427,507,123202,70862
79210,10871.277200100001,1671626100.427,507,123228,70860
79210,10871.277200100001,1671626100.427,507,123228,70860
79211,10871.293358,1671626100.427,507,123233,70895
79211,10871.293358,1671626100.427,507,123233,70895
79212,10871.307740633334,1671626100.513,507,123253,70875
79212,10871.307740633334,1671626100.513,507,123253,70875
79213,10871.322123266667,1671626100.513,508,123268,70885
79213,10871.322123266667,1671626100.513,508,123268,70885
79214,10871.3365059,1671626100.513,507,123289,70920
79214,10871.3365059,1671626100.513,507,123289,70920
79215,10871.350888533334,1671626100.513,507,123373,70918
79215,10871.350888533334,1671626100.513,507,123373,70918
79216,10871.365271166667,1671626100.513,508,123352,70938
79216,10871.365271166667,1671626100.513,508,123352,70938
79217,10871.3796538,1671626100.513,509,123391,70940
79217,10871.3796538,1671626100.513,509,123391,70940
79218,10871.393756000001,1671626100.598,508,123462,70954
79218,10871.393756000001,1671626100.598,508,123462,70954
79219,10871.4078582,1671626100.598,507,123394,70981
79219,10871.4078582,1671626100.598,507,123394,70981
79220,10871.421960399999,1671626100.598,507,123468,70982
79220,10871.421960399999,1671626100.598,507,123468,70982
79221,10871.4360626,1671626100.598,508,123497,70984
79221,10871.4360626,1671626100.598,508,123497,70984
79222,10871.4501648,1671626100.598,507,123577,71015
79222,10871.4501648,1671626100.598,507,123577,71015
79223,10871.464267,1671626100.598,507,123528,70999
79223,10871.464267,1671626100.598,507,123528,70999
79224,10871.480218516666,1671626100.693,506,123442,70944
79224,10871.480218516666,1671626100.693,506,123442,70944
79225,10871.496170033333,1671626100.693,507,123374,70920
79225,10871.496170033333,1671626100.693,507,123374,70920
79226,10871.51212155,1671626100.693,509,123220,70876
79226,10871.51212155,1671626100.693,509,123220,70876
79227,10871.528073066665,1671626100.693,506,123178,70849
79227,10871.528073066665,1671626100.693,506,123178,70849
79228,10871.544024583332,1671626100.693,507,123128,70813
79228,10871.544024583332,1671626100.693,507,123128,70813
79229,10871.5599761,1671626100.693,508,123055,70790
79229,10871.5599761,1671626100.693,508,123055,70790
79230,10871.577483283332,1671626100.798,506,122998,70796
79230,10871.577483283332,1671626100.798,506,122998,70796
79231,10871.594990466667,1671626100.798,507,123011,70811
79231,10871.594990466667,1671626100.798,507,123011,70811
79232,10871.61249765,1671626100.798,506,123029,70795
79232,10871.61249765,1671626100.798,506,123029,70795
79233,10871.630004833332,1671626100.798,506,123068,70804
79233,10871.630004833332,1671626100.798,506,123068,70804
79234,10871.647512016667,1671626100.798,507,123026,70828
79234,10871.647512016667,1671626100.798,507,123026,70828
79235,10871.6650192,1671626100.798,507,123022,70809
79235,10871.6650192,1671626100.798,507,123022,70809
79236,10871.679298533334,1671626100.884,506,122983,70791
79236,10871.679298533334,1671626100.884,506,122983,70791
79237,10871.693577866667,1671626100.884,508,123051,70813
79237,10871.693577866667,1671626100.884,508,123051,70813
79238,10871.7078572,1671626100.884,506,123048,70818
79238,10871.7078572,1671626100.884,506,123048,70818
79239,10871.722136533333,1671626100.884,505,123081,70817
79239,10871.722136533333,1671626100.884,505,123081,70817
79240,10871.736415866668,1671626100.884,506,123052,70843
79240,10871.736415866668,1671626100.884,506,123052,70843
79241,10871.7506952,1671626100.884,506,123118,70833
79241,10871.7506952,1671626100.884,506,123118,70833
79242,10871.76623775,1671626100.977,507,123134,70840
79242,10871.76623775,1671626100.977,507,123134,70840
79243,10871.7817803,1671626100.977,507,123113,70851
79243,10871.7817803,1671626100.977,507,123113,70851
79244,10871.797322850001,1671626100.977,507,123126,70843
79244,10871.797322850001,1671626100.977,507,123126,70843
79245,10871.812865400001,1671626100.977,507,123114,70820
79245,10871.812865400001,1671626100.977,507,123114,70820
79246,10871.82840795,1671626100.977,507,123068,70823
79246,10871.82840795,1671626100.977,507,123068,70823
79247,10871.8439505,1671626100.977,507,123145,70807
79247,10871.8439505,1671626100.977,507,123145,70807
79248,10871.859155266668,1671626101.069,506,123107,70862
79248,10871.859155266668,1671626101.069,506,123107,70862
79249,10871.874360033335,1671626101.069,508,123187,70819
79249,10871.874360033335,1671626101.069,508,123187,70819
79250,10871.8895648,1671626101.069,508,123133,70838
79250,10871.8895648,1671626101.069,508,123133,70838
79251,10871.904769566667,1671626101.069,507,123176,70842
79251,10871.904769566667,1671626101.069,507,123176,70842
79252,10871.919974333334,1671626101.069,508,123211,70866
79252,10871.919974333334,1671626101.069,508,123211,70866
79253,10871.9351791,1671626101.069,507,123246,70857
79253,10871.9351791,1671626101.069,507,123246,70857
79254,10871.951725116667,1671626101.168,508,123264,70883
79254,10871.951725116667,1671626101.168,508,123264,70883
79255,10871.968271133333,1671626101.168,507,123227,70888
79255,10871.968271133333,1671626101.168,507,123227,70888
79256,10871.984817150002,1671626101.168,506,123282,70901
79256,10871.984817150002,1671626101.168,506,123282,70901
79257,10872.001363166668,1671626101.168,507,123327,70917
79257,10872.001363166668,1671626101.168,507,123327,70917
79258,10872.017909183334,1671626101.168,508,123392,70920
79258,10872.017909183334,1671626101.168,508,123392,70920
79259,10872.0344552,1671626101.168,509,123291,70920
79259,10872.0344552,1671626101.168,509,123291,70920
79260,10872.050087616666,1671626101.262,508,123347,70943
79260,10872.050087616666,1671626101.262,508,123347,70943
79261,10872.065720033333,1671626101.262,508,123478,70950
79261,10872.065720033333,1671626101.262,508,123478,70950
79262,10872.08135245,1671626101.262,509,123457,70945
79262,10872.08135245,1671626101.262,509,123457,70945
79263,10872.096984866666,1671626101.262,507,123550,70970
79263,10872.096984866666,1671626101.262,507,123550,70970
79264,10872.112617283332,1671626101.262,508,123534,70965
79264,10872.112617283332,1671626101.262,508,123534,70965
79265,10872.1282497,1671626101.262,508,123530,70993
79265,10872.1282497,1671626101.262,508,123530,70993
79266,10872.142230366666,1671626101.345,508,123494,70982
79266,10872.142230366666,1671626101.345,508,123494,70982
79267,10872.156211033333,1671626101.345,508,123488,70946
79267,10872.156211033333,1671626101.345,508,123488,70946
79268,10872.1701917,1671626101.345,509,123358,70913
79268,10872.1701917,1671626101.345,509,123358,70913
79269,10872.184172366668,1671626101.345,507,123228,70871
79269,10872.184172366668,1671626101.345,507,123228,70871
79270,10872.198153033334,1671626101.345,508,123157,70832
79270,10872.198153033334,1671626101.345,508,123157,70832
79271,10872.2121337,1671626101.345,508,123053,70843
79271,10872.2121337,1671626101.345,508,123053,70843
79272,10872.228564866668,1671626101.444,507,123017,70816
79272,10872.228564866668,1671626101.444,507,123017,70816
79273,10872.244996033334,1671626101.444,507,123058,70813
79273,10872.244996033334,1671626101.444,507,123058,70813
79274,10872.2614272,1671626101.444,509,123055,70810
79274,10872.2614272,1671626101.444,509,123055,70810
79275,10872.277858366666,1671626101.444,508,123108,70823
79275,10872.277858366666,1671626101.444,508,123108,70823
79276,10872.294289533333,1671626101.444,508,123079,70821
79276,10872.294289533333,1671626101.444,508,123079,70821
79277,10872.3107207,1671626101.444,508,123027,70810
79277,10872.3107207,1671626101.444,508,123027,70810
79278,10872.327719766667,1671626101.546,508,123067,70824
79278,10872.327719766667,1671626101.546,508,123067,70824
79279,10872.344718833332,1671626101.546,507,123007,70807
79279,10872.344718833332,1671626101.546,507,123007,70807
79280,10872.3617179,1671626101.546,506,123087,70842
79280,10872.3617179,1671626101.546,506,123087,70842
79281,10872.378716966667,1671626101.546,509,123072,70826
79281,10872.378716966667,1671626101.546,509,123072,70826
79282,10872.395716033332,1671626101.546,508,123137,70845
79282,10872.395716033332,1671626101.546,508,123137,70845
79283,10872.4127151,1671626101.546,508,123186,70836
79283,10872.4127151,1671626101.546,508,123186,70836
79284,10872.427333683332,1671626101.634,509,123224,70869
79284,10872.427333683332,1671626101.634,509,123224,70869
79285,10872.441952266667,1671626101.634,507,123227,70867
79285,10872.441952266667,1671626101.634,507,123227,70867
79286,10872.45657085,1671626101.634,507,123197,70854
79286,10872.45657085,1671626101.634,507,123197,70854
79287,10872.471189433332,1671626101.634,506,123213,70848
79287,10872.471189433332,1671626101.634,506,123213,70848
79288,10872.485808016667,1671626101.634,508,123265,70851
79288,10872.485808016667,1671626101.634,508,123265,70851
79289,10872.5004266,1671626101.634,508,123197,70871
79289,10872.5004266,1671626101.634,508,123197,70871
79290,10872.51558825,1671626101.725,508,123170,70879
79290,10872.51558825,1671626101.725,508,123170,70879
79291,10872.5307499,1671626101.725,507,123213,70852
79291,10872.5307499,1671626101.725,507,123213,70852
79292,10872.54591155,1671626101.725,509,123226,70875
79292,10872.54591155,1671626101.725,509,123226,70875
79293,10872.5610732,1671626101.725,506,123204,70873
79293,10872.5610732,1671626101.725,506,123204,70873
79294,10872.57623485,1671626101.725,507,123232,70890
79294,10872.57623485,1671626101.725,507,123232,70890
79295,10872.5913965,1671626101.725,507,123177,70872
79295,10872.5913965,1671626101.725,507,123177,70872
79296,10872.60725355,1671626101.82,507,123336,70892
79296,10872.60725355,1671626101.82,507,123336,70892
79297,10872.6231106,1671626101.82,508,123316,70903
79297,10872.6231106,1671626101.82,508,123316,70903
79298,10872.63896765,1671626101.82,508,123344,70900
79298,10872.63896765,1671626101.82,508,123344,70900
79299,10872.654824700001,1671626101.82,509,123373,70905
79299,10872.654824700001,1671626101.82,509,123373,70905
79300,10872.67068175,1671626101.82,507,123425,70924
79300,10872.67068175,1671626101.82,507,123425,70924
79301,10872.6865388,1671626101.82,508,123409,70927
79301,10872.6865388,1671626101.82,508,123409,70927
79302,10872.7031818,1671626101.92,507,123462,70940
79302,10872.7031818,1671626101.92,507,123462,70940
79303,10872.7198248,1671626101.92,508,123481,70941
79303,10872.7198248,1671626101.92,508,123481,70941
79304,10872.736467800001,1671626101.92,508,123533,70942
79304,10872.736467800001,1671626101.92,508,123533,70942
79305,10872.7531108,1671626101.92,509,123562,70976
79305,10872.7531108,1671626101.92,509,123562,70976
79306,10872.7697538,1671626101.92,508,123589,71011
79306,10872.7697538,1671626101.92,508,123589,71011
79307,10872.7863968,1671626101.92,508,123620,71004
79307,10872.7863968,1671626101.92,508,123620,71004
79308,10872.801020983334,1671626102.007,509,123681,71010
79308,10872.801020983334,1671626102.007,509,123681,71010
79309,10872.815645166667,1671626102.007,506,123593,70972
79309,10872.815645166667,1671626102.007,506,123593,70972
79310,10872.83026935,1671626102.007,507,123480,70950
79310,10872.83026935,1671626102.007,507,123480,70950
79311,10872.844893533333,1671626102.007,507,123396,70904
79311,10872.844893533333,1671626102.007,507,123396,70904
79312,10872.859517716666,1671626102.007,508,123306,70856
79312,10872.859517716666,1671626102.007,508,123306,70856
79313,10872.8741419,1671626102.007,507,123212,70818
79313,10872.8741419,1671626102.007,507,123212,70818
79314,10872.888763616666,1671626102.095,510,123172,70824
79314,10872.888763616666,1671626102.095,510,123172,70824
79315,10872.903385333333,1671626102.095,506,123179,70815
79315,10872.903385333333,1671626102.095,506,123179,70815
79316,10872.91800705,1671626102.095,509,123129,70791
79316,10872.91800705,1671626102.095,509,123129,70791
79317,10872.932628766666,1671626102.095,508,123074,70795
79317,10872.932628766666,1671626102.095,508,123074,70795
79318,10872.947250483332,1671626102.095,507,123137,70800
79318,10872.947250483332,1671626102.095,507,123137,70800
79319,10872.9618722,1671626102.095,509,123098,70790
79319,10872.9618722,1671626102.095,509,123098,70790
79320,10872.978534183334,1671626102.195,508,123036,70800
79320,10872.978534183334,1671626102.195,508,123036,70800
79321,10872.995196166667,1671626102.195,508,123110,70800
79321,10872.995196166667,1671626102.195,508,123110,70800
79322,10873.01185815,1671626102.195,507,123140,70811
79322,10873.01185815,1671626102.195,507,123140,70811
79323,10873.028520133334,1671626102.195,509,123091,70802
79323,10873.028520133334,1671626102.195,509,123091,70802
79324,10873.03854984379,1671626102.195,508,123174,70826
79324,10873.046302963834,1671626102.195,508,123174,70826
79325,10873.054056083878,1671626102.195,508,123165,70817
79325,10873.061809203922,1671626102.195,508,123165,70817
79326,10873.069562323966,1671626102.293,508,123164,70828
79326,10873.07731544401,1671626102.293,508,123164,70828
79327,10873.085068564054,1671626102.293,508,123179,70819
79327,10873.092821684098,1671626102.293,508,123179,70819
79328,10873.100574804143,1671626102.293,506,123201,70830
79328,10873.108327924187,1671626102.293,506,123201,70830
79329,10873.11608104423,1671626102.293,508,123213,70824
79329,10873.123834164275,1671626102.293,508,123213,70824
79330,10873.131587284319,1671626102.293,508,123253,70841
79330,10873.139340404363,1671626102.293,508,123253,70841
79331,10873.147093524407,1671626102.293,509,123223,70823
79331,10873.154846644451,1671626102.293,509,123223,70823
79332,10873.162599764495,1671626102.385,507,123211,70825
79332,10873.17035288454,1671626102.385,507,123211,70825
79333,10873.178106004583,1671626102.385,508,123280,70837
79333,10873.185859124627,1671626102.385,508,123280,70837
79334,10873.20017182706,1671626102.385,506,123250,70842
79334,10873.207490331537,1671626102.385,506,123250,70842
79335,10873.214808836014,1671626102.385,506,123241,70855
79335,10873.22212734049,1671626102.385,506,123241,70855
79336,10873.229445844967,1671626102.385,507,123287,70860
79336,10873.236764349444,1671626102.385,507,123287,70860
79337,10873.24408285392,1671626102.385,507,123306,70876
79337,10873.251401358397,1671626102.385,507,123306,70876
79338,10873.258719862873,1671626102.475,508,123395,70865
79338,10873.26603836735,1671626102.475,508,123395,70865
79339,10873.273356871827,1671626102.475,507,123299,70868
79339,10873.280675376303,1671626102.475,507,123299,70868
79340,10873.28799388078,1671626102.475,509,123356,70878
79340,10873.295312385257,1671626102.475,509,123356,70878
79341,10873.302630889733,1671626102.475,508,123399,70886
79341,10873.30994939421,1671626102.475,508,123399,70886
79342,10873.317267898687,1671626102.475,506,123464,70894
79342,10873.324586403163,1671626102.475,506,123464,70894
79343,10873.33190490764,1671626102.475,507,123456,70903
79343,10873.339223412117,1671626102.475,507,123456,70903
79344,10873.350446535838,1671626102.573,507,123501,70935
79344,10873.357446583792,1671626102.573,507,123501,70935
79345,10873.364446631746,1671626102.573,507,123568,70892
79345,10873.3714466797,1671626102.573,507,123568,70892
79346,10873.378446727653,1671626102.573,507,123534,70944
79346,10873.385446775606,1671626102.573,507,123534,70944
79347,10873.39244682356,1671626102.573,507,123667,70956
79347,10873.399446871514,1671626102.573,507,123667,70956
79348,10873.406446919467,1671626102.573,507,123640,70945
79348,10873.41344696742,1671626102.573,507,123640,70945
79349,10873.420447015375,1671626102.573,507,123590,70958
79349,10873.427447063328,1671626102.573,507,123590,70958
79350,10873.434447111282,1671626102.676,507,123711,70980
79350,10873.441447159235,1671626102.676,507,123711,70980
79351,10873.448447207189,1671626102.676,507,123730,70959
79351,10873.455447255143,1671626102.676,507,123730,70959
79352,10873.462447303096,1671626102.676,508,123694,70969
79352,10873.46944735105,1671626102.676,508,123694,70969
79353,10873.476447399004,1671626102.676,507,123553,70919
79353,10873.483447446957,1671626102.676,507,123553,70919
79354,10873.518271272753,1671626102.676,508,123528,70894
79354,10873.526272547922,1671626102.676,508,123528,70894
79355,10873.534273823092,1671626102.676,508,123303,70841
79355,10873.542275098262,1671626102.676,508,123303,70841
79356,10873.550276373431,1671626102.759,508,123297,70800
79356,10873.5582776486,1671626102.759,508,123297,70800
79357,10873.56627892377,1671626102.759,507,123228,70781
79357,10873.57428019894,1671626102.759,507,123228,70781
79358,10873.58228147411,1671626102.759,507,123204,70781
79358,10873.59028274928,1671626102.759,507,123204,70781
79359,10873.598284024449,1671626102.759,509,123144,70769
79359,10873.606285299618,1671626102.759,509,123144,70769
79360,10873.614286574788,1671626102.759,506,123176,70776
79360,10873.622287849958,1671626102.759,506,123176,70776
79361,10873.630289125127,1671626102.759,509,123174,70764
79361,10873.638290400297,1671626102.759,509,123174,70764
79362,10873.646291675466,1671626102.848,508,123167,70743
79362,10873.654292950636,1671626102.848,508,123167,70743
79363,10873.662294225805,1671626102.848,508,123161,70773
79363,10873.670295500975,1671626102.848,508,123161,70773
79364,10873.664053271947,1671626102.848,507,123144,70782
79364,10873.67087330408,1671626102.848,507,123144,70782
79365,10873.677693336213,1671626102.848,507,123282,70775
79365,10873.684513368346,1671626102.848,507,123282,70775
79366,10873.691333400478,1671626102.848,508,123161,70784
79366,10873.698153432611,1671626102.848,508,123161,70784
79367,10873.704973464744,1671626102.848,507,123229,70787
79367,10873.711793496877,1671626102.848,507,123229,70787
79368,10873.71861352901,1671626102.944,508,123275,70802
79368,10873.725433561143,1671626102.944,508,123275,70802
79369,10873.732253593276,1671626102.944,508,123220,70794
79369,10873.73907362541,1671626102.944,508,123220,70794
79370,10873.745893657542,1671626102.944,509,123311,70799
79370,10873.752713689675,1671626102.944,509,123311,70799
79371,10873.759533721808,1671626102.944,509,123275,70830
79371,10873.766353753941,1671626102.944,509,123275,70830
79372,10873.773173786074,1671626102.944,508,123342,70794
79372,10873.779993818207,1671626102.944,508,123342,70794
79373,10873.78681385034,1671626102.944,508,123270,70797
79373,10873.793633882473,1671626102.944,508,123270,70797
79374,10873.82066373427,1671626103.048,509,123335,70836
79374,10873.828188957274,1671626103.048,509,123335,70836
79375,10873.835714180277,1671626103.048,507,123379,70815
79375,10873.84323940328,1671626103.048,507,123379,70815
79376,10873.850764626284,1671626103.048,508,123282,70826
79376,10873.858289849288,1671626103.048,508,123282,70826
79377,10873.865815072291,1671626103.048,507,123374,70814
79377,10873.873340295295,1671626103.048,507,123374,70814
79378,10873.880865518298,1671626103.048,507,123325,70806
79378,10873.888390741302,1671626103.048,507,123325,70806
79379,10873.895915964305,1671626103.048,509,123345,70816
79379,10873.903441187309,1671626103.048,509,123345,70816
79380,10873.910966410313,1671626103.135,507,123445,70840
79380,10873.918491633316,1671626103.135,507,123445,70840
79381,10873.92601685632,1671626103.135,507,123357,70834
79381,10873.933542079323,1671626103.135,507,123357,70834
79382,10873.941067302327,1671626103.135,508,123483,70849
79382,10873.94859252533,1671626103.135,508,123483,70849
79383,10873.956117748334,1671626103.135,508,123456,70861
79383,10873.963642971337,1671626103.135,508,123456,70861
79384,10873.981589730562,1671626103.135,507,123453,70846
79384,10873.988459482505,1671626103.135,507,123453,70846
79385,10873.995329234449,1671626103.135,508,123531,70857
79385,10874.002198986393,1671626103.135,508,123531,70857
79386,10874.009068738336,1671626103.239,508,123477,70849
79386,10874.01593849028,1671626103.239,508,123477,70849
79387,10874.022808242224,1671626103.239,508,123530,70887
79387,10874.029677994167,1671626103.239,508,123530,70887
79388,10874.036547746111,1671626103.239,508,123613,70885
79388,10874.043417498055,1671626103.239,508,123613,70885
79389,10874.050287249998,1671626103.239,508,123612,70891
79389,10874.057157001942,1671626103.239,508,123612,70891
79390,10874.064026753886,1671626103.239,508,123711,70907
79390,10874.07089650583,1671626103.239,508,123711,70907
79391,10874.077766257773,1671626103.239,508,123701,70919
79391,10874.084636009717,1671626103.239,508,123701,70919
79392,10874.09150576166,1671626103.334,508,123678,70902
79392,10874.098375513604,1671626103.334,508,123678,70902
79393,10874.105245265548,1671626103.334,508,123776,70919
79393,10874.112115017491,1671626103.334,508,123776,70919
79394,10874.147428355367,1671626103.334,508,123785,70958
79394,10874.15507436638,1671626103.334,508,123785,70958
79395,10874.162720377391,1671626103.334,508,123825,70957
79395,10874.170366388404,1671626103.334,508,123825,70957
79396,10874.178012399416,1671626103.334,509,123836,70965
79396,10874.185658410428,1671626103.334,509,123836,70965
79397,10874.19330442144,1671626103.334,508,123883,70949
79397,10874.200950432452,1671626103.334,508,123883,70949
79398,10874.208596443465,1671626103.418,507,123843,70925
79398,10874.216242454477,1671626103.418,507,123843,70925
79399,10874.223888465489,1671626103.418,506,123664,70884
79399,10874.231534476501,1671626103.418,506,123664,70884
79400,10874.239180487513,1671626103.418,507,123530,70794
79400,10874.246826498525,1671626103.418,507,123530,70794
79401,10874.254472509538,1671626103.418,506,123370,70774
79401,10874.26211852055,1671626103.418,506,123370,70774
79402,10874.269764531562,1671626103.418,508,123350,70791
79402,10874.277410542574,1671626103.418,508,123350,70791
79403,10874.285056553586,1671626103.418,508,123300,70750
79403,10874.292702564599,1671626103.418,508,123300,70750
79404,10874.292745497209,1671626103.518,508,123239,70720
79404,10874.299266783797,1671626103.518,508,123239,70720
79405,10874.305788070385,1671626103.518,507,123256,70729
79405,10874.312309356974,1671626103.518,507,123256,70729
79406,10874.318830643562,1671626103.518,507,123260,70722
79406,10874.32535193015,1671626103.518,507,123260,70722
79407,10874.331873216739,1671626103.518,507,123224,70714
79407,10874.338394503327,1671626103.518,507,123224,70714
79408,10874.344915789916,1671626103.518,506,123199,70718
79408,10874.351437076504,1671626103.518,506,123199,70718
79409,10874.357958363093,1671626103.518,508,123212,70732
79409,10874.364479649681,1671626103.518,508,123212,70732
79410,10874.37100093627,1671626103.596,509,123362,70756
79410,10874.377522222858,1671626103.596,509,123362,70756
79411,10874.384043509446,1671626103.596,508,123292,70723
79411,10874.390564796035,1671626103.596,508,123292,70723
79412,10874.397086082623,1671626103.596,508,123280,70728
79412,10874.403607369211,1671626103.596,508,123280,70728
79413,10874.4101286558,1671626103.596,508,123372,70737
79413,10874.416649942388,1671626103.596,508,123372,70737
79414,10874.444854698935,1671626103.596,507,123367,70777
79414,10874.4510437965,1671626103.596,507,123367,70777
79415,10874.457232894065,1671626103.596,508,123345,70746
79415,10874.46342199163,1671626103.596,508,123345,70746
79416,10874.469611089195,1671626103.696,507,123404,70784
79416,10874.47580018676,1671626103.696,507,123404,70784
79417,10874.481989284324,1671626103.696,507,123412,70770
79417,10874.48817838189,1671626103.696,507,123412,70770
79418,10874.494367479454,1671626103.696,509,123410,70753
79418,10874.500556577019,1671626103.696,509,123410,70753
79419,10874.506745674584,1671626103.696,508,123364,70762
79419,10874.512934772149,1671626103.696,508,123364,70762
79420,10874.519123869713,1671626103.696,507,123300,70749
79420,10874.525312967278,1671626103.696,507,123300,70749
79421,10874.531502064843,1671626103.696,508,123328,70734
79421,10874.537691162408,1671626103.696,508,123328,70734
79422,10874.543880259973,1671626103.796,507,123324,70749
79422,10874.550069357538,1671626103.796,507,123324,70749
79423,10874.556258455103,1671626103.796,507,123360,70765
79423,10874.562447552667,1671626103.796,507,123360,70765
79424,10874.60587804426,1671626103.796,507,123412,70765
79424,10874.613673631324,1671626103.796,507,123412,70765
79425,10874.621469218388,1671626103.796,507,123395,70762
79425,10874.629264805451,1671626103.796,507,123395,70762
79426,10874.637060392515,1671626103.796,509,123439,70802
79426,10874.644855979579,1671626103.796,509,123439,70802
79427,10874.652651566643,1671626103.796,507,123383,70779
79427,10874.660447153707,1671626103.796,507,123383,70779
79428,10874.66824274077,1671626103.886,508,123491,70770
79428,10874.676038327834,1671626103.886,508,123491,70770
79429,10874.683833914898,1671626103.886,508,123521,70793
79429,10874.691629501962,1671626103.886,508,123521,70793
79430,10874.699425089026,1671626103.886,508,123540,70807
79430,10874.70722067609,1671626103.886,508,123540,70807
79431,10874.715016263153,1671626103.886,508,123572,70800
79431,10874.722811850217,1671626103.886,508,123572,70800
79432,10874.730607437281,1671626103.886,508,123572,70815
79432,10874.738403024345,1671626103.886,508,123572,70815
79433,10874.746198611409,1671626103.886,508,123620,70820
79433,10874.753994198472,1671626103.886,508,123620,70820
79434,10874.76132284577,1671626103.979,509,123674,70837
79434,10874.768352494371,1671626103.979,509,123674,70837
79435,10874.775382142972,1671626103.979,508,123732,70833
79435,10874.782411791573,1671626103.979,508,123732,70833
79436,10874.789441440174,1671626103.979,507,123667,70839
79436,10874.796471088775,1671626103.979,507,123667,70839
79437,10874.803500737376,1671626103.979,509,123726,70844
79437,10874.810530385977,1671626103.979,509,123726,70844
79438,10874.817560034578,1671626103.979,507,123760,70854
79438,10874.82458968318,1671626103.979,507,123760,70854
79439,10874.83161933178,1671626103.979,507,123837,70882
79439,10874.838648980382,1671626103.979,507,123837,70882
79440,10874.845678628983,1671626104.069,506,123938,70871
79440,10874.852708277584,1671626104.069,506,123938,70871
79441,10874.859737926185,1671626104.069,507,123879,70897
79441,10874.866767574786,1671626104.069,507,123879,70897
79442,10874.873797223387,1671626104.069,510,123872,70869
79442,10874.880826871988,1671626104.069,510,123872,70869
79443,10874.887856520589,1671626104.069,508,123845,70869
79443,10874.89488616919,1671626104.069,508,123845,70869
79444,10874.91518065791,1671626104.069,508,123726,70843
79444,10874.922260302577,1671626104.069,508,123726,70843
79445,10874.929339947244,1671626104.069,509,123563,70758
79445,10874.936419591912,1671626104.069,509,123563,70758
79446,10874.943499236579,1671626104.172,508,123425,70738
79446,10874.950578881246,1671626104.172,508,123425,70738
79447,10874.957658525913,1671626104.172,507,123333,70687
79447,10874.96473817058,1671626104.172,507,123333,70687
79448,10874.971817815247,1671626104.172,507,123293,70665
79448,10874.978897459914,1671626104.172,507,123293,70665
79449,10874.985977104581,1671626104.172,508,123293,70644
79449,10874.993056749248,1671626104.172,508,123293,70644
79450,10875.000136393915,1671626104.172,507,123190,70643
79450,10875.007216038583,1671626104.172,507,123190,70643
79451,10875.01429568325,1671626104.172,507,123196,70653
79451,10875.021375327917,1671626104.172,507,123196,70653
79452,10875.028454972584,1671626104.265,508,123317,70659
79452,10875.035534617251,1671626104.265,508,123317,70659
79453,10875.042614261918,1671626104.265,507,123258,70658
79453,10875.049693906585,1671626104.265,507,123258,70658
79454,10875.07943258383,1671626104.265,507,123292,70654
79454,10875.086886684403,1671626104.265,507,123292,70654
79455,10875.094340784975,1671626104.265,507,123259,70654
79455,10875.101794885548,1671626104.265,507,123259,70654
79456,10875.10924898612,1671626104.265,507,123278,70638
79456,10875.116703086693,1671626104.265,507,123278,70638
79457,10875.124157187265,1671626104.265,506,123270,70672
79457,10875.131611287838,1671626104.265,506,123270,70672
79458,10875.13906538841,1671626104.353,508,123324,70658
79458,10875.146519488982,1671626104.353,508,123324,70658
79459,10875.153973589555,1671626104.353,508,123394,70682
79459,10875.161427690127,1671626104.353,508,123394,70682
79460,10875.1688817907,1671626104.353,509,123371,70659
79460,10875.176335891272,1671626104.353,509,123371,70659
79461,10875.183789991845,1671626104.353,507,123461,70692
79461,10875.191244092417,1671626104.353,507,123461,70692
79462,10875.19869819299,1671626104.353,508,123458,70679
79462,10875.206152293562,1671626104.353,508,123458,70679
79463,10875.213606394134,1671626104.353,508,123377,70655
79463,10875.221060494707,1671626104.353,508,123377,70655
79464,10875.228915138994,1671626104.444,507,123502,70682
79464,10875.235849154342,1671626104.444,507,123502,70682
79465,10875.24278316969,1671626104.444,509,123415,70700
79465,10875.249717185037,1671626104.444,509,123415,70700
79466,10875.256651200385,1671626104.444,508,123417,70645
79466,10875.263585215733,1671626104.444,508,123417,70645
79467,10875.27051923108,1671626104.444,509,123404,70653
79467,10875.277453246428,1671626104.444,509,123404,70653
79468,10875.284387261776,1671626104.444,509,123444,70692
79468,10875.291321277124,1671626104.444,509,123444,70692
79469,10875.298255292471,1671626104.444,508,123475,70672
79469,10875.30518930782,1671626104.444,508,123475,70672
79470,10875.312123323167,1671626104.544,507,123444,70698
79470,10875.319057338515,1671626104.544,507,123444,70698
79471,10875.325991353862,1671626104.544,507,123519,70672
79471,10875.33292536921,1671626104.544,507,123519,70672
79472,10875.339859384558,1671626104.544,508,123466,70663
79472,10875.346793399905,1671626104.544,508,123466,70663
79473,10875.353727415253,1671626104.544,508,123531,70708
79473,10875.3606614306,1671626104.544,508,123531,70708
79474,10875.38711130062,1671626104.544,508,123540,70704
79474,10875.394875537222,1671626104.544,508,123540,70704
79475,10875.402639773823,1671626104.544,509,123620,70706
79475,10875.410404010425,1671626104.544,509,123620,70706
79476,10875.418168247026,1671626104.636,508,123701,70727
79476,10875.425932483628,1671626104.636,508,123701,70727
79477,10875.433696720229,1671626104.636,509,123654,70721
79477,10875.44146095683,1671626104.636,509,123654,70721
79478,10875.449225193432,1671626104.636,508,123645,70724
79478,10875.456989430033,1671626104.636,508,123645,70724
79479,10875.464753666634,1671626104.636,508,123694,70738
79479,10875.472517903236,1671626104.636,508,123694,70738
79480,10875.480282139837,1671626104.636,508,123758,70735
79480,10875.488046376438,1671626104.636,508,123758,70735
79481,10875.49581061304,1671626104.636,507,123823,70763
79481,10875.503574849641,1671626104.636,507,123823,70763
79482,10875.511339086243,1671626104.723,507,123843,70755
79482,10875.519103322844,1671626104.723,507,123843,70755
79483,10875.526867559445,1671626104.723,509,123846,70784
79483,10875.534631796047,1671626104.723,509,123846,70784
79484,10875.540692826105,1671626104.723,509,123881,70787
79484,10875.547589580685,1671626104.723,509,123881,70787
79485,10875.554486335264,1671626104.723,508,123925,70777
79485,10875.561383089844,1671626104.723,508,123925,70777
79486,10875.568279844423,1671626104.723,507,123890,70808
79486,10875.575176599003,1671626104.723,507,123890,70808
79487,10875.582073353582,1671626104.723,507,124012,70826
79487,10875.588970108161,1671626104.723,507,124012,70826
79488,10875.59586686274,1671626104.82,508,123969,70805
79488,10875.60276361732,1671626104.82,508,123969,70805
79489,10875.6096603719,1671626104.82,507,124039,70820
79489,10875.61655712648,1671626104.82,507,124039,70820
79490,10875.623453881059,1671626104.82,507,123966,70794
79490,10875.630350635638,1671626104.82,507,123966,70794
79491,10875.637247390217,1671626104.82,506,123913,70742
79491,10875.644144144797,1671626104.82,506,123913,70742
79492,10875.651040899376,1671626104.82,507,123683,70680
79492,10875.657937653956,1671626104.82,507,123683,70680
79493,10875.664834408535,1671626104.82,507,123522,70625
79493,10875.671731163115,1671626104.82,507,123522,70625
79494,10875.69645823255,1671626104.937,507,123443,70580
79494,10875.704049574517,1671626104.937,507,123443,70580
79495,10875.711640916483,1671626104.937,506,123321,70571
79495,10875.719232258449,1671626104.937,506,123321,70571
79496,10875.726823600415,1671626104.937,506,123320,70559
79496,10875.73441494238,1671626104.937,506,123320,70559
79497,10875.742006284347,1671626104.937,507,123231,70539
79497,10875.749597626313,1671626104.937,507,123231,70539
79498,10875.757188968279,1671626104.937,508,123253,70544
79498,10875.764780310245,1671626104.937,508,123253,70544
79499,10875.77237165221,1671626104.937,508,123301,70526
79499,10875.779962994176,1671626104.937,508,123301,70526
79500,10875.787554336142,1671626105.016,507,123346,70537
79500,10875.795145678108,1671626105.016,507,123346,70537
79501,10875.802737020074,1671626105.016,507,123251,70551
79501,10875.81032836204,1671626105.016,507,123251,70551
79502,10875.817919704006,1671626105.016,507,123327,70532
79502,10875.825511045972,1671626105.016,507,123327,70532
79503,10875.833102387938,1671626105.016,507,123345,70553
79503,10875.840693729904,1671626105.016,507,123345,70553
79504,10875.864377304419,1671626105.016,508,123301,70556
79504,10875.870733998458,1671626105.016,508,123301,70556
79505,10875.877090692496,1671626105.016,508,123404,70546
79505,10875.883447386535,1671626105.016,508,123404,70546
79506,10875.889804080574,1671626105.116,506,123446,70583
79506,10875.896160774613,1671626105.116,506,123446,70583
79507,10875.902517468652,1671626105.116,507,123433,70581
79507,10875.908874162691,1671626105.116,507,123433,70581
79508,10875.91523085673,1671626105.116,509,123378,70558
79508,10875.921587550769,1671626105.116,509,123378,70558
79509,10875.927944244808,1671626105.116,507,123390,70563
79509,10875.934300938847,1671626105.116,507,123390,70563
79510,10875.940657632886,1671626105.116,507,123428,70551
79510,10875.947014326925,1671626105.116,507,123428,70551
79511,10875.953371020963,1671626105.116,507,123415,70552
79511,10875.959727715002,1671626105.116,507,123415,70552
79512,10875.966084409041,1671626105.202,506,123467,70562
79512,10875.97244110308,1671626105.202,506,123467,70562
79513,10875.97879779712,1671626105.202,508,123333,70545
79513,10875.985154491158,1671626105.202,508,123333,70545
79514,10876.020971287911,1671626105.202,507,123470,70566
79514,10876.028017257437,1671626105.202,507,123470,70566
79515,10876.035063226962,1671626105.202,509,123510,70529
79515,10876.042109196487,1671626105.202,509,123510,70529
79516,10876.049155166012,1671626105.202,508,123445,70530
79516,10876.056201135538,1671626105.202,508,123445,70530
79517,10876.063247105063,1671626105.202,508,123388,70538
79517,10876.070293074588,1671626105.202,508,123388,70538
79518,10876.077339044114,1671626105.284,507,123569,70573
79518,10876.084385013639,1671626105.284,507,123569,70573
79519,10876.091430983164,1671626105.284,507,123477,70549
79519,10876.09847695269,1671626105.284,507,123477,70549
79520,10876.105522922215,1671626105.284,507,123488,70552
79520,10876.11256889174,1671626105.284,507,123488,70552
79521,10876.119614861265,1671626105.284,507,123497,70579
79521,10876.12666083079,1671626105.284,507,123497,70579
79522,10876.133706800316,1671626105.284,507,123585,70566
79522,10876.140752769841,1671626105.284,507,123585,70566
79523,10876.147798739366,1671626105.284,508,123575,70569
79523,10876.154844708892,1671626105.284,508,123575,70569
79524,10876.158719286119,1671626105.383,509,123676,70589
79524,10876.165097587751,1671626105.383,509,123676,70589
79525,10876.171475889383,1671626105.383,509,123644,70591
79525,10876.177854191015,1671626105.383,509,123644,70591
79526,10876.184232492647,1671626105.383,507,123697,70620
79526,10876.19061079428,1671626105.383,507,123697,70620
79527,10876.196989095912,1671626105.383,507,123784,70604
79527,10876.203367397544,1671626105.383,507,123784,70604
79528,10876.209745699176,1671626105.383,507,123828,70622
79528,10876.216124000808,1671626105.383,507,123828,70622
79529,10876.22250230244,1671626105.383,507,123875,70652
79529,10876.228880604072,1671626105.383,507,123875,70652
79530,10876.235258905705,1671626105.472,508,123804,70637
79530,10876.241637207337,1671626105.472,508,123804,70637
79531,10876.248015508969,1671626105.472,507,123926,70648
79531,10876.254393810601,1671626105.472,507,123926,70648
79532,10876.260772112233,1671626105.472,507,123880,70657
79532,10876.267150413865,1671626105.472,507,123880,70657
79533,10876.273528715497,1671626105.472,507,123988,70673
79533,10876.27990701713,1671626105.472,507,123988,70673
79534,10876.318195705766,1671626105.472,507,123930,70666
79534,10876.325196932066,1671626105.472,507,123930,70666
79535,10876.332198158367,1671626105.472,508,124030,70685
79535,10876.339199384667,1671626105.472,508,124030,70685
79536,10876.346200610968,1671626105.561,507,124039,70707
79536,10876.353201837268,1671626105.561,507,124039,70707
79537,10876.360203063568,1671626105.561,507,124054,70708
79537,10876.367204289869,1671626105.561,507,124054,70708
79538,10876.37420551617,1671626105.561,508,124065,70690
79538,10876.38120674247,1671626105.561,508,124065,70690
79539,10876.38820796877,1671626105.561,507,123862,70626
79539,10876.39520919507,1671626105.561,507,123862,70626
79540,10876.402210421371,1671626105.561,507,123686,70567
79540,10876.409211647671,1671626105.561,507,123686,70567
79541,10876.416212873972,1671626105.561,507,123632,70519
79541,10876.423214100272,1671626105.561,507,123632,70519
79542,10876.430215326573,1671626105.666,507,123481,70468
79542,10876.437216552873,1671626105.666,507,123481,70468
79543,10876.444217779173,1671626105.666,507,123348,70445
79543,10876.451219005474,1671626105.666,507,123348,70445
79544,10876.472362067005,1671626105.666,507,123344,70415
79544,10876.480222714994,1671626105.666,507,123344,70415
79545,10876.488083362983,1671626105.666,507,123286,70400
79545,10876.495944010972,1671626105.666,507,123286,70400
79546,10876.503804658962,1671626105.666,506,123356,70428
79546,10876.51166530695,1671626105.666,506,123356,70428
79547,10876.51952595494,1671626105.666,508,123309,70425
79547,10876.52738660293,1671626105.666,508,123309,70425
79548,10876.535247250918,1671626105.756,508,123252,70429
79548,10876.543107898908,1671626105.756,508,123252,70429
79549,10876.550968546897,1671626105.756,508,123334,70413
79549,10876.558829194886,1671626105.756,508,123334,70413
79550,10876.566689842875,1671626105.756,508,123349,70422
79550,10876.574550490865,1671626105.756,508,123349,70422
79551,10876.582411138854,1671626105.756,507,123298,70424
79551,10876.590271786843,1671626105.756,507,123298,70424
79552,10876.598132434832,1671626105.756,507,123378,70420
79552,10876.605993082821,1671626105.756,507,123378,70420
79553,10876.61385373081,1671626105.756,507,123421,70433
79553,10876.6217143788,1671626105.756,507,123421,70433
79554,10876.63129601055,1671626105.858,506,123454,70451
79554,10876.638286478854,1671626105.858,506,123454,70451
79555,10876.645276947158,1671626105.858,507,123496,70443
79555,10876.652267415462,1671626105.858,507,123496,70443
79556,10876.659257883766,1671626105.858,507,123492,70425
79556,10876.66624835207,1671626105.858,507,123492,70425
79557,10876.673238820375,1671626105.858,507,123451,70438
79557,10876.680229288679,1671626105.858,507,123451,70438
79558,10876.687219756983,1671626105.858,506,123410,70438
79558,10876.694210225287,1671626105.858,506,123410,70438
79559,10876.701200693591,1671626105.858,507,123410,70403
79559,10876.708191161895,1671626105.858,507,123410,70403
79560,10876.7151816302,1671626105.948,506,123382,70414
79560,10876.722172098504,1671626105.948,506,123382,70414
79561,10876.729162566808,1671626105.948,506,123379,70408
79561,10876.736153035112,1671626105.948,506,123379,70408
79562,10876.743143503416,1671626105.948,506,123428,70410
79562,10876.75013397172,1671626105.948,506,123428,70410
79563,10876.757124440024,1671626105.948,506,123373,70424
79563,10876.764114908328,1671626105.948,506,123373,70424
79564,10876.79381782901,1671626105.948,508,123402,70400
79564,10876.800859718629,1671626105.948,508,123402,70400
79565,10876.807901608248,1671626105.948,509,123410,70422
79565,10876.814943497868,1671626105.948,509,123410,70422
79566,10876.821985387487,1671626106.046,509,123517,70423
79566,10876.829027277106,1671626106.046,509,123517,70423
79567,10876.836069166726,1671626106.046,507,123534,70447
79567,10876.843111056345,1671626106.046,507,123534,70447
79568,10876.850152945965,1671626106.046,507,123495,70435
79568,10876.857194835584,1671626106.046,507,123495,70435
79569,10876.864236725203,1671626106.046,506,123569,70418
79569,10876.871278614823,1671626106.046,506,123569,70418
79570,10876.878320504442,1671626106.046,506,123566,70431
79570,10876.885362394061,1671626106.046,506,123566,70431
79571,10876.89240428368,1671626106.046,509,123588,70448
79571,10876.8994461733,1671626106.046,509,123588,70448
79572,10876.90648806292,1671626106.149,507,123645,70432
79572,10876.913529952539,1671626106.149,507,123645,70432
79573,10876.920571842158,1671626106.149,509,123629,70467
79573,10876.927613731777,1671626106.149,509,123629,70467
79574,10876.957119723129,1671626106.149,509,123633,70458
79574,10876.965030409949,1671626106.149,509,123633,70458
79575,10876.972941096768,1671626106.149,507,123715,70488
79575,10876.980851783588,1671626106.149,507,123715,70488
79576,10876.988762470408,1671626106.149,508,123691,70484
79576,10876.996673157228,1671626106.149,508,123691,70484
79577,10877.004583844047,1671626106.149,507,123670,70474
79577,10877.012494530867,1671626106.149,507,123670,70474
79578,10877.020405217687,1671626106.233,509,123762,70500
79578,10877.028315904507,1671626106.233,509,123762,70500
79579,10877.036226591326,1671626106.233,508,123811,70521
79579,10877.044137278146,1671626106.233,508,123811,70521
79580,10877.052047964966,1671626106.233,508,123828,70521
79580,10877.059958651786,1671626106.233,508,123828,70521
79581,10877.067869338605,1671626106.233,508,123920,70521
79581,10877.075780025425,1671626106.233,508,123920,70521
79582,10877.083690712245,1671626106.233,508,123876,70526
79582,10877.091601399065,1671626106.233,508,123876,70526
79583,10877.099512085884,1671626106.233,508,123955,70553
79583,10877.107422772704,1671626106.233,508,123955,70553
79584,10877.107803716593,1671626106.333,508,123941,70530
79584,10877.114381745901,1671626106.333,508,123941,70530
79585,10877.12095977521,1671626106.333,506,123893,70491
79585,10877.127537804517,1671626106.333,506,123893,70491
79586,10877.134115833825,1671626106.333,508,123698,70431
79586,10877.140693863133,1671626106.333,508,123698,70431
79587,10877.147271892441,1671626106.333,509,123580,70384
79587,10877.15384992175,1671626106.333,509,123580,70384
79588,10877.160427951057,1671626106.333,509,123454,70314
79588,10877.167005980366,1671626106.333,509,123454,70314
79589,10877.173584009674,1671626106.333,507,123347,70300
79589,10877.180162038982,1671626106.333,507,123347,70300
79590,10877.18674006829,1671626106.414,507,123247,70278
79590,10877.193318097598,1671626106.414,507,123247,70278
79591,10877.199896126906,1671626106.414,506,123263,70267
79591,10877.206474156214,1671626106.414,506,123263,70267
79592,10877.213052185522,1671626106.414,508,123279,70256
79592,10877.21963021483,1671626106.414,508,123279,70256
79593,10877.226208244138,1671626106.414,508,123221,70240
79593,10877.232786273446,1671626106.414,508,123221,70240
79594,10877.262199849592,1671626106.414,508,123275,70254
79594,10877.26861060331,1671626106.414,508,123275,70254
79595,10877.275021357029,1671626106.414,508,123247,70266
79595,10877.281432110747,1671626106.414,508,123247,70266
79596,10877.287842864465,1671626106.517,508,123239,70254
79596,10877.294253618184,1671626106.517,508,123239,70254
79597,10877.300664371902,1671626106.517,508,123255,70262
79597,10877.30707512562,1671626106.517,508,123255,70262
79598,10877.313485879338,1671626106.517,507,123288,70279
79598,10877.319896633056,1671626106.517,507,123288,70279
79599,10877.326307386775,1671626106.517,507,123314,70269
79599,10877.332718140493,1671626106.517,507,123314,70269
79600,10877.339128894211,1671626106.517,506,123443,70291
79600,10877.34553964793,1671626106.517,506,123443,70291
79601,10877.351950401648,1671626106.517,505,123403,70317
79601,10877.358361155366,1671626106.517,505,123403,70317
79602,10877.364771909084,1671626106.599,506,123415,70309
79602,10877.371182662802,1671626106.599,506,123415,70309
79603,10877.37759341652,1671626106.599,507,123423,70291
79603,10877.384004170239,1671626106.599,507,123423,70291
79604,10877.420241381169,1671626106.599,508,123316,70306
79604,10877.427142626173,1671626106.599,508,123316,70306
79605,10877.434043871177,1671626106.599,509,123365,70280
79605,10877.440945116181,1671626106.599,509,123365,70280
79606,10877.447846361185,1671626106.599,507,123347,70274
79606,10877.454747606189,1671626106.599,507,123347,70274
79607,10877.461648851193,1671626106.599,506,123371,70269
79607,10877.468550096197,1671626106.599,506,123371,70269
79608,10877.4754513412,1671626106.696,506,123331,70279
79608,10877.482352586205,1671626106.696,506,123331,70279
79609,10877.489253831209,1671626106.696,505,123321,70240
79609,10877.496155076213,1671626106.696,505,123321,70240
79610,10877.503056321217,1671626106.696,507,123338,70264
79610,10877.50995756622,1671626106.696,507,123338,70264
79611,10877.516858811225,1671626106.696,507,123441,70280
79611,10877.523760056229,1671626106.696,507,123441,70280
79612,10877.530661301233,1671626106.696,507,123413,70273
79612,10877.537562546237,1671626106.696,507,123413,70273
79613,10877.54446379124,1671626106.696,506,123442,70275
79613,10877.551365036245,1671626106.696,506,123442,70275
79614,10877.572471323367,1671626106.791,507,123403,70277
79614,10877.580023323222,1671626106.791,507,123403,70277
79615,10877.587575323078,1671626106.791,506,123463,70298
79615,10877.595127322933,1671626106.791,506,123463,70298
79616,10877.602679322788,1671626106.791,507,123533,70320
79616,10877.610231322644,1671626106.791,507,123533,70320
79617,10877.6177833225,1671626106.791,507,123526,70323
79617,10877.625335322355,1671626106.791,507,123526,70323
79618,10877.63288732221,1671626106.791,507,123522,70297
79618,10877.640439322066,1671626106.791,507,123522,70297
79619,10877.647991321921,1671626106.791,506,123589,70322
79619,10877.655543321776,1671626106.791,506,123589,70322
79620,10877.663095321632,1671626106.896,509,123545,70318
79620,10877.670647321487,1671626106.896,509,123545,70318
79621,10877.678199321343,1671626106.896,507,123694,70337
79621,10877.685751321198,1671626106.896,507,123694,70337
79622,10877.693303321053,1671626106.896,506,123749,70351
79622,10877.700855320909,1671626106.896,506,123749,70351
79623,10877.708407320764,1671626106.896,507,123725,70357
79623,10877.71595932062,1671626106.896,507,123725,70357
79624,10877.738267757568,1671626106.896,507,123770,70366
79624,10877.746451890704,1671626106.896,507,123770,70366
79625,10877.75463602384,1671626106.896,507,123730,70367
79625,10877.762820156975,1671626106.896,507,123730,70367
79626,10877.77100429011,1671626106.977,507,123772,70382
79626,10877.779188423247,1671626106.977,507,123772,70382
79627,10877.787372556382,1671626106.977,508,123782,70386
79627,10877.795556689518,1671626106.977,508,123782,70386
79628,10877.803740822654,1671626106.977,508,123833,70403
79628,10877.81192495579,1671626106.977,508,123833,70403
79629,10877.820109088925,1671626106.977,508,123763,70387
79629,10877.82829322206,1671626106.977,508,123763,70387
79630,10877.836477355197,1671626106.977,507,123916,70409
79630,10877.844661488332,1671626106.977,507,123916,70409
79631,10877.852845621468,1671626106.977,508,123876,70411
79631,10877.861029754604,1671626106.977,508,123876,70411
79632,10877.86921388774,1671626107.068,508,123823,70404
79632,10877.877398020875,1671626107.068,508,123823,70404
79633,10877.885582154011,1671626107.068,507,123722,70347
79633,10877.893766287147,1671626107.068,507,123722,70347
79634,10877.882904514056,1671626107.068,507,123608,70305
79634,10877.889797420603,1671626107.068,507,123608,70305
79635,10877.89669032715,1671626107.068,507,123466,70259
79635,10877.903583233698,1671626107.068,507,123466,70259
79636,10877.910476140245,1671626107.068,508,123271,70200
79636,10877.917369046792,1671626107.068,508,123271,70200
79637,10877.92426195334,1671626107.068,508,123232,70171
79637,10877.931154859887,1671626107.068,508,123232,70171
79638,10877.938047766434,1671626107.167,506,123155,70120
79638,10877.944940672982,1671626107.167,506,123155,70120
79639,10877.95183357953,1671626107.167,507,123090,70136
79639,10877.958726486077,1671626107.167,507,123090,70136
79640,10877.965619392624,1671626107.167,506,123192,70123
79640,10877.972512299171,1671626107.167,506,123192,70123
79641,10877.979405205719,1671626107.167,506,123051,70101
79641,10877.986298112266,1671626107.167,506,123051,70101
79642,10877.993191018813,1671626107.167,507,123125,70124
79642,10878.00008392536,1671626107.167,507,123125,70124
79643,10878.006976831908,1671626107.167,508,123073,70092
79643,10878.013869738455,1671626107.167,508,123073,70092
79644,10878.043377403012,1671626107.262,508,123037,70109
79644,10878.051063314211,1671626107.262,508,123037,70109
79645,10878.05874922541,1671626107.262,508,123134,70088
79645,10878.06643513661,1671626107.262,508,123134,70088
79646,10878.07412104781,1671626107.262,507,123126,70110
79646,10878.08180695901,1671626107.262,507,123126,70110
79647,10878.08949287021,1671626107.262,506,123163,70093
79647,10878.097178781409,1671626107.262,506,123163,70093
79648,10878.104864692608,1671626107.262,505,123167,70111
79648,10878.112550603808,1671626107.262,505,123167,70111
79649,10878.120236515007,1671626107.262,507,123177,70124
79649,10878.127922426207,1671626107.262,507,123177,70124
79650,10878.135608337407,1671626107.346,507,123183,70091
79650,10878.143294248606,1671626107.346,507,123183,70091
79651,10878.150980159806,1671626107.346,508,123242,70115
79651,10878.158666071005,1671626107.346,508,123242,70115
79652,10878.166351982205,1671626107.346,508,123149,70113
79652,10878.174037893405,1671626107.346,508,123149,70113
79653,10878.181723804604,1671626107.346,507,123173,70081
79653,10878.189409715804,1671626107.346,507,123173,70081
79654,10878.193707822558,1671626107.346,507,123196,70101
79654,10878.200340212235,1671626107.346,507,123196,70101
79655,10878.206972601913,1671626107.346,507,123205,70085
79655,10878.21360499159,1671626107.346,507,123205,70085
79656,10878.220237381267,1671626107.441,508,123081,70057
79656,10878.226869770944,1671626107.441,508,123081,70057
79657,10878.233502160621,1671626107.441,506,123132,70073
79657,10878.240134550299,1671626107.441,506,123132,70073
79658,10878.246766939976,1671626107.441,507,123160,70074
79658,10878.253399329653,1671626107.441,507,123160,70074
79659,10878.26003171933,1671626107.441,509,123183,70051
79659,10878.266664109007,1671626107.441,509,123183,70051
79660,10878.273296498684,1671626107.441,507,123160,70076
79660,10878.279928888362,1671626107.441,507,123160,70076
79661,10878.286561278039,1671626107.441,507,123220,70067
79661,10878.293193667716,1671626107.441,507,123220,70067
79662,10878.299826057393,1671626107.542,507,123215,70074
79662,10878.30645844707,1671626107.542,507,123215,70074
79663,10878.313090836748,1671626107.542,507,123208,70066
79663,10878.319723226425,1671626107.542,507,123208,70066
79664,10878.351217870799,1671626107.542,507,123231,70075
79664,10878.358983275437,1671626107.542,507,123231,70075
79665,10878.366748680075,1671626107.542,507,123209,70086
79665,10878.374514084713,1671626107.542,507,123209,70086
79666,10878.382279489351,1671626107.542,508,123228,70082
79666,10878.39004489399,1671626107.542,508,123228,70082
79667,10878.397810298628,1671626107.542,507,123268,70104
79667,10878.405575703266,1671626107.542,507,123268,70104
79668,10878.413341107904,1671626107.633,507,123276,70089
79668,10878.421106512542,1671626107.633,507,123276,70089
79669,10878.42887191718,1671626107.633,508,123354,70111
79669,10878.436637321818,1671626107.633,508,123354,70111
79670,10878.444402726456,1671626107.633,506,123369,70113
79670,10878.452168131094,1671626107.633,506,123369,70113
79671,10878.459933535732,1671626107.633,506,123419,70136
79671,10878.46769894037,1671626107.633,506,123419,70136
79672,10878.475464345009,1671626107.633,506,123475,70134
79672,10878.483229749647,1671626107.633,506,123475,70134
79673,10878.490995154285,1671626107.633,507,123511,70152
79673,10878.498760558923,1671626107.633,507,123511,70152
79674,10878.509113728423,1671626107.725,508,123489,70140
79674,10878.516224647883,1671626107.725,508,123489,70140
79675,10878.523335567343,1671626107.725,507,123517,70136
79675,10878.530446486802,1671626107.725,507,123517,70136
79676,10878.537557406262,1671626107.725,506,123569,70132
79676,10878.544668325721,1671626107.725,506,123569,70132
79677,10878.551779245181,1671626107.725,508,123512,70157
79677,10878.55889016464,1671626107.725,508,123512,70157
79678,10878.5660010841,1671626107.725,507,123498,70164
79678,10878.57311200356,1671626107.725,507,123498,70164
79679,10878.58022292302,1671626107.725,507,123594,70177
79679,10878.587333842479,1671626107.725,507,123594,70177
79680,10878.594444761939,1671626107.819,507,123632,70154
79680,10878.601555681398,1671626107.819,507,123632,70154
79681,10878.608666600858,1671626107.819,506,123559,70131
79681,10878.615777520317,1671626107.819,506,123559,70131
79682,10878.622888439777,1671626107.819,508,123338,70074
79682,10878.629999359237,1671626107.819,508,123338,70074
79683,10878.637110278696,1671626107.819,508,123278,70022
79683,10878.644221198156,1671626107.819,508,123278,70022
79684,10878.66395919709,1671626107.819,506,123083,69980
79684,10878.671294836302,1671626107.819,506,123083,69980
79685,10878.678630475513,1671626107.819,507,122979,69951
79685,10878.685966114725,1671626107.819,507,122979,69951
79686,10878.693301753936,1671626107.92,508,122987,69941
79686,10878.700637393147,1671626107.92,508,122987,69941
79687,10878.707973032358,1671626107.92,507,122931,69927
79687,10878.71530867157,1671626107.92,507,122931,69927
79688,10878.722644310781,1671626107.92,506,122937,69909
79688,10878.729979949992,1671626107.92,506,122937,69909
79689,10878.737315589204,1671626107.92,507,122850,69905
79689,10878.744651228415,1671626107.92,507,122850,69905
79690,10878.751986867626,1671626107.92,507,122950,69887
79690,10878.759322506838,1671626107.92,507,122950,69887
79691,10878.766658146049,1671626107.92,507,122875,69884
79691,10878.77399378526,1671626107.92,507,122875,69884
79692,10878.781329424472,1671626108.008,507,122910,69861
79692,10878.788665063683,1671626108.008,507,122910,69861
79693,10878.796000702894,1671626108.008,506,122883,69880
79693,10878.803336342105,1671626108.008,506,122883,69880
79694,10878.825442774558,1671626108.008,506,122865,69884
79694,10878.832593666193,1671626108.008,506,122865,69884
79695,10878.839744557828,1671626108.008,506,122908,69873
79695,10878.846895449464,1671626108.008,506,122908,69873
79696,10878.8540463411,1671626108.008,507,122958,69899
79696,10878.861197232734,1671626108.008,507,122958,69899
79697,10878.86834812437,1671626108.008,507,122904,69885
79697,10878.875499016005,1671626108.008,507,122904,69885
79698,10878.88264990764,1671626108.103,507,122938,69876
79698,10878.889800799276,1671626108.103,507,122938,69876
79699,10878.896951690911,1671626108.103,505,122915,69878
79699,10878.904102582546,1671626108.103,505,122915,69878
79700,10878.911253474182,1671626108.103,507,122954,69866
79700,10878.918404365817,1671626108.103,507,122954,69866
79701,10878.925555257452,1671626108.103,509,122923,69873
79701,10878.932706149088,1671626108.103,509,122923,69873
79702,10878.939857040723,1671626108.103,507,122944,69837
79702,10878.947007932358,1671626108.103,507,122944,69837
79703,10878.954158823994,1671626108.103,507,122900,69833
79703,10878.961309715629,1671626108.103,507,122900,69833
79704,10878.979605453715,1671626108.196,507,122928,69861
79704,10878.987066122816,1671626108.196,507,122928,69861
79705,10878.994526791917,1671626108.196,507,122885,69838
79705,10879.001987461019,1671626108.196,507,122885,69838
79706,10879.00944813012,1671626108.196,507,122915,69845
79706,10879.016908799222,1671626108.196,507,122915,69845
79707,10879.024369468323,1671626108.196,507,122872,69823
79707,10879.031830137425,1671626108.196,507,122872,69823
79708,10879.039290806526,1671626108.196,507,122896,69826
79708,10879.046751475627,1671626108.196,507,122896,69826
79709,10879.054212144729,1671626108.196,509,122956,69844
79709,10879.06167281383,1671626108.196,509,122956,69844
79710,10879.069133482932,1671626108.295,508,122968,69857
79710,10879.076594152033,1671626108.295,508,122968,69857
79711,10879.084054821134,1671626108.295,508,122935,69833
79711,10879.091515490236,1671626108.295,508,122935,69833
79712,10879.098976159337,1671626108.295,507,122928,69836
79712,10879.106436828439,1671626108.295,507,122928,69836
79713,10879.11389749754,1671626108.295,507,122973,69848
79713,10879.121358166642,1671626108.295,507,122973,69848
79714,10879.138607965107,1671626108.295,507,122965,69845
79714,10879.146325288308,1671626108.295,507,122965,69845
79715,10879.154042611508,1671626108.295,508,123047,69853
79715,10879.161759934708,1671626108.295,508,123047,69853
79716,10879.169477257909,1671626108.387,508,122960,69843
79716,10879.177194581109,1671626108.387,508,122960,69843
79717,10879.184911904309,1671626108.387,506,123055,69843
79717,10879.19262922751,1671626108.387,506,123055,69843
79718,10879.20034655071,1671626108.387,507,123115,69859
79718,10879.20806387391,1671626108.387,507,123115,69859
79719,10879.21578119711,1671626108.387,507,123182,69871
79719,10879.22349852031,1671626108.387,507,123182,69871
79720,10879.23121584351,1671626108.387,507,123122,69865
79720,10879.238933166711,1671626108.387,507,123122,69865
79721,10879.246650489911,1671626108.387,508,123134,69876
79721,10879.254367813111,1671626108.387,508,123134,69876
79722,10879.262085136312,1671626108.476,508,123206,69868
79722,10879.269802459512,1671626108.476,508,123206,69868
79723,10879.277519782712,1671626108.476,506,123176,69877
79723,10879.285237105913,1671626108.476,506,123176,69877
79724,10879.292422371243,1671626108.476,508,123209,69894
79724,10879.299463120773,1671626108.476,508,123209,69894
79725,10879.306503870303,1671626108.476,508,123270,69887
79725,10879.313544619832,1671626108.476,508,123270,69887
79726,10879.320585369362,1671626108.476,507,123242,69881
79726,10879.327626118891,1671626108.476,507,123242,69881
79727,10879.33466686842,1671626108.476,508,123256,69905
79727,10879.34170761795,1671626108.476,508,123256,69905
79728,10879.34874836748,1671626108.572,507,123260,69912
79728,10879.35578911701,1671626108.572,507,123260,69912
79729,10879.362829866539,1671626108.572,508,123294,69917
79729,10879.369870616069,1671626108.572,508,123294,69917
79730,10879.376911365598,1671626108.572,507,123264,69905
79730,10879.383952115128,1671626108.572,507,123264,69905
79731,10879.390992864657,1671626108.572,508,123176,69883
79731,10879.398033614187,1671626108.572,508,123176,69883
79732,10879.405074363716,1671626108.572,507,123109,69832
79732,10879.412115113246,1671626108.572,507,123109,69832
79733,10879.419155862775,1671626108.572,508,122988,69791
79733,10879.426196612305,1671626108.572,508,122988,69791
79734,10879.448600273126,1671626108.674,507,122886,69744
79734,10879.456096382288,1671626108.674,507,122886,69744
79735,10879.46359249145,1671626108.674,507,122803,69732
79735,10879.47108860061,1671626108.674,507,122803,69732
79736,10879.478584709772,1671626108.674,508,122775,69683
79736,10879.486080818933,1671626108.674,508,122775,69683
79737,10879.493576928095,1671626108.674,509,122750,69697
79737,10879.501073037256,1671626108.674,509,122750,69697
79738,10879.508569146417,1671626108.674,505,122627,69673
79738,10879.516065255579,1671626108.674,505,122627,69673
79739,10879.52356136474,1671626108.674,508,122677,69671
79739,10879.531057473901,1671626108.674,508,122677,69671
79740,10879.538553583063,1671626108.757,508,122695,69684
79740,10879.546049692224,1671626108.757,508,122695,69684
79741,10879.553545801386,1671626108.757,507,122657,69651
79741,10879.561041910547,1671626108.757,507,122657,69651
79742,10879.568538019708,1671626108.757,507,122679,69667
79742,10879.57603412887,1671626108.757,507,122679,69667
79743,10879.583530238031,1671626108.757,507,122640,69651
79743,10879.591026347192,1671626108.757,507,122640,69651
79744,10879.604719362562,1671626108.757,508,122702,69644
79744,10879.611287994741,1671626108.757,508,122702,69644
79745,10879.617856626921,1671626108.757,507,122618,69650
79745,10879.6244252591,1671626108.757,507,122618,69650
79746,10879.63099389128,1671626108.853,507,122713,69662
79746,10879.63756252346,1671626108.853,507,122713,69662
79747,10879.64413115564,1671626108.853,508,122697,69664
79747,10879.650699787819,1671626108.853,508,122697,69664
79748,10879.657268419998,1671626108.853,506,122688,69636
79748,10879.663837052178,1671626108.853,506,122688,69636
79749,10879.670405684357,1671626108.853,509,122721,69623
79749,10879.676974316537,1671626108.853,509,122721,69623
79750,10879.683542948716,1671626108.853,507,122657,69618
79750,10879.690111580896,1671626108.853,507,122657,69618
79751,10879.696680213076,1671626108.853,506,122659,69624
79751,10879.703248845255,1671626108.853,506,122659,69624
79752,10879.709817477435,1671626108.945,507,122659,69623
79752,10879.716386109614,1671626108.945,507,122659,69623
79753,10879.722954741794,1671626108.945,508,122625,69593
79753,10879.729523373973,1671626108.945,508,122625,69593
79754,10879.759614886612,1671626108.945,507,122599,69616
79754,10879.766878397168,1671626108.945,507,122599,69616
79755,10879.774141907723,1671626108.945,508,122621,69588
79755,10879.781405418278,1671626108.945,508,122621,69588
79756,10879.788668928833,1671626108.945,508,122653,69595
79756,10879.795932439389,1671626108.945,508,122653,69595
79757,10879.803195949944,1671626108.945,508,122610,69571
79757,10879.8104594605,1671626108.945,508,122610,69571
79758,10879.817722971055,1671626109.041,507,122668,69616
79758,10879.82498648161,1671626109.041,507,122668,69616
79759,10879.832249992165,1671626109.041,507,122621,69583
79759,10879.83951350272,1671626109.041,507,122621,69583
79760,10879.846777013276,1671626109.041,508,122692,69627
79760,10879.854040523831,1671626109.041,508,122692,69627
79761,10879.861304034386,1671626109.041,507,122688,69615
79761,10879.868567544941,1671626109.041,507,122688,69615
79762,10879.875831055497,1671626109.041,508,122690,69614
79762,10879.883094566052,1671626109.041,508,122690,69614
79763,10879.890358076607,1671626109.041,507,122705,69614
79763,10879.897621587163,1671626109.041,507,122705,69614
79764,10879.91705361588,1671626109.141,506,122789,69618
79764,10879.924548186733,1671626109.141,506,122789,69618
79765,10879.932042757586,1671626109.141,508,122693,69617
79765,10879.939537328439,1671626109.141,508,122693,69617
79766,10879.947031899292,1671626109.141,507,122791,69627
79766,10879.954526470145,1671626109.141,507,122791,69627
79767,10879.962021040998,1671626109.141,507,122781,69619
79767,10879.96951561185,1671626109.141,507,122781,69619
79768,10879.977010182703,1671626109.141,507,122831,69630
79768,10879.984504753556,1671626109.141,507,122831,69630
79769,10879.99199932441,1671626109.141,507,122829,69624
79769,10879.999493895262,1671626109.141,507,122829,69624
79770,10880.006988466115,1671626109.231,507,122838,69623
79770,10880.014483036968,1671626109.231,507,122838,69623
79771,10880.021977607821,1671626109.231,507,122904,69637
79771,10880.029472178674,1671626109.231,507,122904,69637
79772,10880.036966749527,1671626109.231,508,122821,69629
79772,10880.04446132038,1671626109.231,508,122821,69629
79773,10880.051955891233,1671626109.231,509,122895,69632
79773,10880.059450462086,1671626109.231,509,122895,69632
79774,10880.07670170388,1671626109.231,509,122830,69621
79774,10880.08376301064,1671626109.231,509,122830,69621
79775,10880.0908243174,1671626109.231,507,122824,69655
79775,10880.09788562416,1671626109.231,507,122824,69655
79776,10880.10494693092,1671626109.319,507,122973,69674
79776,10880.11200823768,1671626109.319,507,122973,69674
79777,10880.11906954444,1671626109.319,508,122871,69642
79777,10880.1261308512,1671626109.319,508,122871,69642
79778,10880.13319215796,1671626109.319,507,122875,69660
79778,10880.14025346472,1671626109.319,507,122875,69660
79779,10880.14731477148,1671626109.319,508,122973,69641
79779,10880.15437607824,1671626109.319,508,122973,69641
79780,10880.161437385,1671626109.319,507,122820,69596
79780,10880.16849869176,1671626109.319,507,122820,69596
79781,10880.17555999852,1671626109.319,509,122629,69524
79781,10880.182621305281,1671626109.319,509,122629,69524
79782,10880.189682612041,1671626109.423,507,122616,69526
79782,10880.196743918801,1671626109.423,507,122616,69526
79783,10880.203805225561,1671626109.423,507,122425,69482
79783,10880.210866532321,1671626109.423,507,122425,69482
79784,10880.230151004094,1671626109.423,508,122438,69490
79784,10880.237914453322,1671626109.423,508,122438,69490
79785,10880.24567790255,1671626109.423,507,122324,69435
79785,10880.253441351779,1671626109.423,507,122324,69435
79786,10880.261204801007,1671626109.423,509,122417,69447
79786,10880.268968250235,1671626109.423,509,122417,69447
79787,10880.276731699463,1671626109.423,507,122391,69434
79787,10880.284495148691,1671626109.423,507,122391,69434
79788,10880.29225859792,1671626109.526,506,122432,69441
79788,10880.300022047148,1671626109.526,506,122432,69441
79789,10880.307785496376,1671626109.526,508,122387,69399
79789,10880.315548945604,1671626109.526,508,122387,69399
79790,10880.323312394832,1671626109.526,507,122361,69415
79790,10880.33107584406,1671626109.526,507,122361,69415
79791,10880.338839293288,1671626109.526,507,122376,69417
79791,10880.346602742517,1671626109.526,507,122376,69417
79792,10880.354366191745,1671626109.526,507,122377,69398
79792,10880.362129640973,1671626109.526,507,122377,69398
79793,10880.369893090201,1671626109.526,507,122346,69407
79793,10880.37765653943,1671626109.526,507,122346,69407
79794,10880.403496334242,1671626109.602,509,122451,69403
79794,10880.411569820544,1671626109.602,509,122451,69403
79795,10880.419643306846,1671626109.602,509,122328,69410
79795,10880.427716793149,1671626109.602,509,122328,69410
79796,10880.43579027945,1671626109.602,507,122378,69400
79796,10880.443863765753,1671626109.602,507,122378,69400
79797,10880.451937252055,1671626109.602,509,122381,69399
79797,10880.460010738358,1671626109.602,509,122381,69399
79798,10880.46808422466,1671626109.602,508,122361,69385
79798,10880.476157710962,1671626109.602,508,122361,69385
79799,10880.484231197264,1671626109.602,507,122316,69359
79799,10880.492304683567,1671626109.602,507,122316,69359
79800,10880.500378169869,1671626109.694,508,122351,69364
79800,10880.508451656171,1671626109.694,508,122351,69364
79801,10880.516525142473,1671626109.694,508,122304,69356
79801,10880.524598628775,1671626109.694,508,122304,69356
79802,10880.532672115078,1671626109.694,506,122275,69358
79802,10880.54074560138,1671626109.694,506,122275,69358
79803,10880.548819087682,1671626109.694,508,122342,69336
79803,10880.556892573984,1671626109.694,508,122342,69336
79804,10880.539123065972,1671626109.694,507,122314,69357
79804,10880.546212450521,1671626109.694,507,122314,69357
79805,10880.55330183507,1671626109.694,508,122313,69335
79805,10880.56039121962,1671626109.694,508,122313,69335
79806,10880.56748060417,1671626109.797,509,122356,69338
79806,10880.57456998872,1671626109.797,509,122356,69338
79807,10880.581659373269,1671626109.797,508,122324,69350
79807,10880.588748757818,1671626109.797,508,122324,69350
79808,10880.595838142368,1671626109.797,507,122325,69361
79808,10880.602927526917,1671626109.797,507,122325,69361
79809,10880.610016911467,1671626109.797,507,122282,69352
79809,10880.617106296017,1671626109.797,507,122282,69352
79810,10880.624195680566,1671626109.797,507,122329,69355
79810,10880.631285065116,1671626109.797,507,122329,69355
79811,10880.638374449665,1671626109.797,505,122351,69353
79811,10880.645463834215,1671626109.797,505,122351,69353
79812,10880.652553218764,1671626109.887,508,122335,69332
79812,10880.659642603314,1671626109.887,508,122335,69332
79813,10880.666731987863,1671626109.887,508,122395,69376
79813,10880.673821372413,1671626109.887,508,122395,69376
79814,10880.702951955851,1671626109.887,507,122458,69377
79814,10880.710284087007,1671626109.887,507,122458,69377
79815,10880.717616218162,1671626109.887,508,122454,69356
79815,10880.724948349318,1671626109.887,508,122454,69356
79816,10880.732280480473,1671626109.887,506,122508,69395
79816,10880.73961261163,1671626109.887,506,122508,69395
79817,10880.746944742785,1671626109.887,507,122491,69387
79817,10880.75427687394,1671626109.887,507,122491,69387
79818,10880.761609005096,1671626109.983,507,122425,69374
79818,10880.768941136252,1671626109.983,507,122425,69374
79819,10880.776273267407,1671626109.983,508,122522,69393
79819,10880.783605398563,1671626109.983,508,122522,69393
79820,10880.790937529719,1671626109.983,508,122475,69372
79820,10880.798269660874,1671626109.983,508,122475,69372
79821,10880.80560179203,1671626109.983,509,122524,69393
79821,10880.812933923185,1671626109.983,509,122524,69393
79822,10880.820266054341,1671626109.983,506,122543,69391
79822,10880.827598185497,1671626109.983,506,122543,69391
79823,10880.834930316652,1671626109.983,507,122521,69391
79823,10880.842262447808,1671626109.983,507,122521,69391
79824,10880.85916919564,1671626110.069,507,122579,69396
79824,10880.866669466996,1671626110.069,507,122579,69396
79825,10880.87416973835,1671626110.069,507,122579,69409
79825,10880.881670009705,1671626110.069,507,122579,69409
79826,10880.88917028106,1671626110.069,508,122594,69416
79826,10880.896670552414,1671626110.069,508,122594,69416
79827,10880.90417082377,1671626110.069,508,122639,69424
79827,10880.911671095124,1671626110.069,508,122639,69424
79828,10880.919171366479,1671626110.069,508,122612,69419
79828,10880.926671637833,1671626110.069,508,122612,69419
79829,10880.934171909188,1671626110.069,507,122632,69409
79829,10880.941672180543,1671626110.069,507,122632,69409
79830,10880.949172451898,1671626110.164,507,122644,69410
79830,10880.956672723252,1671626110.164,507,122644,69410
79831,10880.964172994607,1671626110.164,508,122488,69363
79831,10880.971673265962,1671626110.164,508,122488,69363
79832,10880.979173537316,1671626110.164,506,122432,69296
79832,10880.986673808671,1671626110.164,506,122432,69296
79833,10880.994174080026,1671626110.164,507,122298,69291
79833,10881.00167435138,1671626110.164,507,122298,69291
79834,10881.00840995742,1671626110.164,508,122231,69241
79834,10881.015757515623,1671626110.164,508,122231,69241
79835,10881.023105073826,1671626110.164,508,122055,69214
79835,10881.030452632029,1671626110.164,508,122055,69214
79836,10881.037800190232,1671626110.262,508,122056,69206
79836,10881.045147748435,1671626110.262,508,122056,69206
79837,10881.052495306638,1671626110.262,507,122001,69185
79837,10881.05984286484,1671626110.262,507,122001,69185
79838,10881.067190423044,1671626110.262,506,122040,69193
79838,10881.074537981247,1671626110.262,506,122040,69193
79839,10881.08188553945,1671626110.262,507,121984,69181
79839,10881.089233097653,1671626110.262,507,121984,69181
79840,10881.096580655856,1671626110.262,506,121969,69166
79840,10881.10392821406,1671626110.262,506,121969,69166
79841,10881.111275772262,1671626110.262,505,121969,69168
79841,10881.118623330465,1671626110.262,505,121969,69168
79842,10881.125970888668,1671626110.351,508,121878,69148
79842,10881.133318446871,1671626110.351,508,121878,69148
79843,10881.140666005074,1671626110.351,507,121913,69140
79843,10881.148013563277,1671626110.351,507,121913,69140
79844,10881.1677117569,1671626110.351,509,121925,69118
79844,10881.174863867822,1671626110.351,509,121925,69118
79845,10881.182015978744,1671626110.351,507,121955,69148
79845,10881.189168089666,1671626110.351,507,121955,69148
79846,10881.196320200588,1671626110.351,508,121962,69166
79846,10881.20347231151,1671626110.351,508,121962,69166
79847,10881.210624422432,1671626110.351,507,121913,69131
79847,10881.217776533354,1671626110.351,507,121913,69131
79848,10881.224928644277,1671626110.444,509,121886,69110
79848,10881.232080755199,1671626110.444,509,121886,69110
79849,10881.23923286612,1671626110.444,507,121883,69110
79849,10881.246384977043,1671626110.444,507,121883,69110
79850,10881.253537087965,1671626110.444,507,121883,69112
79850,10881.260689198887,1671626110.444,507,121883,69112
79851,10881.26784130981,1671626110.444,507,121822,69082
79851,10881.274993420731,1671626110.444,507,121822,69082
79852,10881.282145531653,1671626110.444,507,121823,69089
79852,10881.289297642576,1671626110.444,507,121823,69089
79853,10881.296449753498,1671626110.444,508,121833,69083
79853,10881.30360186442,1671626110.444,508,121833,69083
79854,10881.320501425842,1671626110.537,506,121792,69059
79854,10881.327808964998,1671626110.537,506,121792,69059
79855,10881.335116504153,1671626110.537,508,121762,69070
79855,10881.342424043309,1671626110.537,508,121762,69070
79856,10881.349731582464,1671626110.537,507,121832,69062
79856,10881.35703912162,1671626110.537,507,121832,69062
79857,10881.364346660775,1671626110.537,506,121852,69080
79857,10881.371654199931,1671626110.537,506,121852,69080
79858,10881.378961739087,1671626110.537,507,121836,69072
79858,10881.386269278242,1671626110.537,507,121836,69072
79859,10881.393576817398,1671626110.537,508,121820,69064
79859,10881.400884356553,1671626110.537,508,121820,69064
79860,10881.408191895709,1671626110.642,508,121779,69078
79860,10881.415499434865,1671626110.642,508,121779,69078
79861,10881.42280697402,1671626110.642,508,121893,69084
79861,10881.430114513176,1671626110.642,508,121893,69084
79862,10881.437422052331,1671626110.642,508,121800,69082
79862,10881.444729591487,1671626110.642,508,121800,69082
79863,10881.452037130643,1671626110.642,507,121870,69098
79863,10881.459344669798,1671626110.642,507,121870,69098
79864,10881.484157039684,1671626110.642,507,121918,69112
79864,10881.492298141671,1671626110.642,507,121918,69112
79865,10881.500439243659,1671626110.642,506,121910,69087
79865,10881.508580345646,1671626110.642,506,121910,69087
79866,10881.516721447633,1671626110.727,508,121903,69077
79866,10881.52486254962,1671626110.727,508,121903,69077
79867,10881.533003651608,1671626110.727,508,121918,69120
79867,10881.541144753595,1671626110.727,508,121918,69120
79868,10881.549285855583,1671626110.727,507,121947,69099
79868,10881.55742695757,1671626110.727,507,121947,69099
79869,10881.565568059557,1671626110.727,509,121920,69100
79869,10881.573709161545,1671626110.727,509,121920,69100
79870,10881.581850263532,1671626110.727,506,121983,69127
79870,10881.58999136552,1671626110.727,506,121983,69127
79871,10881.598132467507,1671626110.727,506,121942,69113
79871,10881.606273569494,1671626110.727,506,121942,69113
79872,10881.614414671481,1671626110.821,508,121986,69105
79872,10881.622555773469,1671626110.821,508,121986,69105
79873,10881.630696875456,1671626110.821,506,121991,69126
79873,10881.638837977443,1671626110.821,506,121991,69126
79874,10881.634511488995,1671626110.821,508,122034,69143
79874,10881.641662919776,1671626110.821,508,122034,69143
79875,10881.648814350556,1671626110.821,507,122068,69138
79875,10881.655965781336,1671626110.821,507,122068,69138
79876,10881.663117212116,1671626110.821,508,122009,69130
79876,10881.670268642896,1671626110.821,508,122009,69130
79877,10881.677420073676,1671626110.821,508,122018,69138
79877,10881.684571504456,1671626110.821,508,122018,69138
79878,10881.691722935237,1671626110.918,508,122004,69137
79878,10881.698874366017,1671626110.918,508,122004,69137
79879,10881.706025796797,1671626110.918,507,122083,69152
79879,10881.713177227577,1671626110.918,507,122083,69152
79880,10881.720328658357,1671626110.918,507,122103,69152
79880,10881.727480089137,1671626110.918,507,122103,69152
79881,10881.734631519917,1671626110.918,507,122089,69162
79881,10881.741782950698,1671626110.918,507,122089,69162
79882,10881.748934381478,1671626110.918,507,122150,69163
79882,10881.756085812258,1671626110.918,507,122150,69163
79883,10881.763237243038,1671626110.918,508,122173,69195
79883,10881.770388673818,1671626110.918,508,122173,69195
79884,10881.794737521574,1671626111.009,507,122122,69172
79884,10881.802301310847,1671626111.009,507,122122,69172
79885,10881.80986510012,1671626111.009,508,122168,69190
79885,10881.817428889393,1671626111.009,508,122168,69190
79886,10881.824992678667,1671626111.009,507,122175,69195
79886,10881.83255646794,1671626111.009,507,122175,69195
79887,10881.840120257213,1671626111.009,509,122141,69166
79887,10881.847684046486,1671626111.009,509,122141,69166
79888,10881.85524783576,1671626111.009,507,121994,69130
79888,10881.862811625033,1671626111.009,507,121994,69130
79889,10881.870375414306,1671626111.009,509,121911,69071
79889,10881.87793920358,1671626111.009,509,121911,69071
79890,10881.885502992853,1671626111.1,506,121791,69041
79890,10881.893066782126,1671626111.1,506,121791,69041
79891,10881.9006305714,1671626111.1,507,121675,68983
79891,10881.908194360672,1671626111.1,507,121675,68983
79892,10881.915758149946,1671626111.1,508,121628,68988
79892,10881.923321939219,1671626111.1,508,121628,68988
79893,10881.930885728492,1671626111.1,508,121573,68974
79893,10881.938449517766,1671626111.1,508,121573,68974
79894,10881.945642917612,1671626111.1,506,121600,68974
79894,10881.952775490809,1671626111.1,506,121600,68974
79895,10881.959908064006,1671626111.1,507,121546,68964
79895,10881.967040637202,1671626111.1,507,121546,68964
79896,10881.9741732104,1671626111.206,507,121542,68949
79896,10881.981305783596,1671626111.206,507,121542,68949
79897,10881.988438356793,1671626111.206,507,121513,68939
79897,10881.99557092999,1671626111.206,507,121513,68939
79898,10882.002703503187,1671626111.206,508,121497,68947
79898,10882.009836076384,1671626111.206,508,121497,68947
79899,10882.016968649581,1671626111.206,508,121506,68927
79899,10882.024101222778,1671626111.206,508,121506,68927
79900,10882.031233795975,1671626111.206,508,121418,68911
79900,10882.038366369172,1671626111.206,508,121418,68911
79901,10882.045498942369,1671626111.206,508,121398,68918
79901,10882.052631515566,1671626111.206,508,121398,68918
79902,10882.059764088763,1671626111.295,506,121393,68917
79902,10882.06689666196,1671626111.295,506,121393,68917
79903,10882.074029235157,1671626111.295,507,121381,68929
79903,10882.081161808353,1671626111.295,507,121381,68929
79904,10882.112264271253,1671626111.295,506,121340,68915
79904,10882.119596578148,1671626111.295,506,121340,68915
79905,10882.126928885044,1671626111.295,508,121385,68905
79905,10882.134261191939,1671626111.295,508,121385,68905
79906,10882.141593498834,1671626111.295,507,121395,68894
79906,10882.14892580573,1671626111.295,507,121395,68894
79907,10882.156258112625,1671626111.295,506,121410,68898
79907,10882.163590419521,1671626111.295,506,121410,68898
79908,10882.170922726416,1671626111.389,508,121465,68900
79908,10882.178255033312,1671626111.389,508,121465,68900
79909,10882.185587340207,1671626111.389,508,121349,68879
79909,10882.192919647103,1671626111.389,508,121349,68879
79910,10882.200251953998,1671626111.389,508,121369,68891
79910,10882.207584260894,1671626111.389,508,121369,68891
79911,10882.21491656779,1671626111.389,508,121346,68878
79911,10882.222248874685,1671626111.389,508,121346,68878
79912,10882.22958118158,1671626111.389,508,121309,68862
79912,10882.236913488476,1671626111.389,508,121309,68862
79913,10882.244245795371,1671626111.389,508,121329,68890
79913,10882.251578102267,1671626111.389,508,121329,68890
79914,10882.265360588919,1671626111.479,508,121379,68863
79914,10882.27271247525,1671626111.479,508,121379,68863
79915,10882.28006436158,1671626111.479,507,121374,68894
79915,10882.28741624791,1671626111.479,507,121374,68894
79916,10882.29476813424,1671626111.479,508,121321,68865
79916,10882.30212002057,1671626111.479,508,121321,68865
79917,10882.3094719069,1671626111.479,507,121421,68892
79917,10882.31682379323,1671626111.479,507,121421,68892
79918,10882.32417567956,1671626111.479,506,121410,68890
79918,10882.33152756589,1671626111.479,506,121410,68890
79919,10882.33887945222,1671626111.479,507,121314,68876
79919,10882.34623133855,1671626111.479,507,121314,68876
79920,10882.35358322488,1671626111.573,506,121402,68903
79920,10882.36093511121,1671626111.573,506,121402,68903
79921,10882.36828699754,1671626111.573,506,121428,68898
79921,10882.37563888387,1671626111.573,506,121428,68898
79922,10882.3829907702,1671626111.573,506,121455,68898
79922,10882.39034265653,1671626111.573,506,121455,68898
79923,10882.39769454286,1671626111.573,507,121365,68912
79923,10882.40504642919,1671626111.573,507,121365,68912
79924,10882.417971722814,1671626111.573,507,121449,68931
79924,10882.425342897379,1671626111.573,507,121449,68931
79925,10882.432714071943,1671626111.573,508,121454,68924
79925,10882.440085246508,1671626111.573,508,121454,68924
79926,10882.447456421072,1671626111.675,508,121493,68934
79926,10882.454827595637,1671626111.675,508,121493,68934
79927,10882.462198770201,1671626111.675,508,121435,68943
79927,10882.469569944766,1671626111.675,508,121435,68943
79928,10882.47694111933,1671626111.675,507,121471,68934
79928,10882.484312293895,1671626111.675,507,121471,68934
79929,10882.491683468459,1671626111.675,508,121536,68951
79929,10882.499054643024,1671626111.675,508,121536,68951
79930,10882.506425817588,1671626111.675,508,121504,68942
79930,10882.513796992152,1671626111.675,508,121504,68942
79931,10882.521168166717,1671626111.675,508,121460,68944
79931,10882.528539341281,1671626111.675,508,121460,68944
79932,10882.535910515846,1671626111.762,508,121589,68974
79932,10882.54328169041,1671626111.762,508,121589,68974
79933,10882.550652864975,1671626111.762,507,121558,68975
79933,10882.55802403954,1671626111.762,507,121558,68975
79934,10882.579973233698,1671626111.762,508,121520,68978
79934,10882.587128904688,1671626111.762,508,121520,68978
79935,10882.594284575678,1671626111.762,508,121500,68993
79935,10882.601440246668,1671626111.762,508,121500,68993
79936,10882.608595917658,1671626111.762,507,121601,68998
79936,10882.615751588648,1671626111.762,507,121601,68998
79937,10882.622907259638,1671626111.762,507,121543,68991
79937,10882.630062930628,1671626111.762,507,121543,68991
79938,10882.637218601618,1671626111.847,508,121610,69007
79938,10882.644374272608,1671626111.847,508,121610,69007
79939,10882.651529943598,1671626111.847,508,121603,69022
79939,10882.658685614588,1671626111.847,508,121603,69022
79940,10882.665841285578,1671626111.847,509,121573,69015
79940,10882.672996956568,1671626111.847,509,121573,69015
79941,10882.680152627558,1671626111.847,507,121711,69032
79941,10882.687308298548,1671626111.847,507,121711,69032
79942,10882.694463969538,1671626111.847,506,121655,69032
79942,10882.701619640527,1671626111.847,506,121655,69032
79943,10882.708775311517,1671626111.847,507,121706,69040
79943,10882.715930982507,1671626111.847,507,121706,69040
79944,10882.72183401918,1671626111.942,506,121699,69050
79944,10882.728433597653,1671626111.942,506,121699,69050
79945,10882.735033176126,1671626111.942,508,121626,69025
79945,10882.7416327546,1671626111.942,508,121626,69025
79946,10882.748232333073,1671626111.942,508,121559,69001
79946,10882.754831911547,1671626111.942,508,121559,69001
79947,10882.76143149002,1671626111.942,507,121457,68986
79947,10882.768031068494,1671626111.942,507,121457,68986
79948,10882.774630646967,1671626111.942,507,121357,68914
79948,10882.78123022544,1671626111.942,507,121357,68914
79949,10882.787829803914,1671626111.942,507,121322,68901
79949,10882.794429382388,1671626111.942,507,121322,68901
79950,10882.801028960861,1671626112.041,507,121317,68882
79950,10882.807628539334,1671626112.041,507,121317,68882
79951,10882.814228117808,1671626112.041,507,121196,68859
79951,10882.820827696281,1671626112.041,507,121196,68859
79952,10882.827427274755,1671626112.041,505,121221,68847
79952,10882.834026853228,1671626112.041,505,121221,68847
79953,10882.840626431702,1671626112.041,508,121144,68853
79953,10882.847226010175,1671626112.041,508,121144,68853
79954,10882.884361947552,1671626112.041,508,121152,68840
79954,10882.892037396605,1671626112.041,508,121152,68840
79955,10882.899712845658,1671626112.041,508,121086,68848
79955,10882.90738829471,1671626112.041,508,121086,68848
79956,10882.915063743763,1671626112.139,508,121050,68821
79956,10882.922739192816,1671626112.139,508,121050,68821
79957,10882.930414641869,1671626112.139,508,121047,68853
79957,10882.938090090922,1671626112.139,508,121047,68853
79958,10882.945765539975,1671626112.139,506,121100,68840
79958,10882.953440989028,1671626112.139,506,121100,68840
79959,10882.96111643808,1671626112.139,506,121060,68831
79959,10882.968791887133,1671626112.139,506,121060,68831
79960,10882.976467336186,1671626112.139,506,121131,68831
79960,10882.984142785239,1671626112.139,506,121131,68831
79961,10882.991818234292,1671626112.139,507,121071,68853
79961,10882.999493683345,1671626112.139,507,121071,68853
79962,10883.007169132397,1671626112.229,507,121063,68841
79962,10883.01484458145,1671626112.229,507,121063,68841
79963,10883.022520030503,1671626112.229,506,121076,68818
79963,10883.030195479556,1671626112.229,506,121076,68818
79964,10883.045017662402,1671626112.229,507,121082,68830
79964,10883.052266904462,1671626112.229,507,121082,68830
79965,10883.059516146523,1671626112.229,507,120993,68812
79965,10883.066765388583,1671626112.229,507,120993,68812
79966,10883.074014630643,1671626112.229,507,120987,68801
79966,10883.081263872704,1671626112.229,507,120987,68801
79967,10883.088513114764,1671626112.229,506,121023,68812
79967,10883.095762356825,1671626112.229,506,121023,68812
79968,10883.103011598885,1671626112.319,508,121015,68797
79968,10883.110260840946,1671626112.319,508,121015,68797
79969,10883.117510083006,1671626112.319,509,121080,68809
79969,10883.124759325066,1671626112.319,509,121080,68809
79970,10883.132008567127,1671626112.319,509,120995,68806
79970,10883.139257809187,1671626112.319,509,120995,68806
79971,10883.146507051248,1671626112.319,508,120957,68824
79971,10883.153756293308,1671626112.319,508,120957,68824
79972,10883.161005535369,1671626112.319,508,120986,68826
79972,10883.168254777429,1671626112.319,508,120986,68826
79973,10883.17550401949,1671626112.319,507,120985,68830
79973,10883.18275326155,1671626112.319,507,120985,68830
79974,10883.195019711378,1671626112.418,508,121055,68838
79974,10883.202052984612,1671626112.418,508,121055,68838
79975,10883.209086257846,1671626112.418,507,121030,68844
79975,10883.21611953108,1671626112.418,507,121030,68844
79976,10883.223152804314,1671626112.418,508,121043,68833
79976,10883.230186077548,1671626112.418,508,121043,68833
79977,10883.237219350782,1671626112.418,508,120955,68838
79977,10883.244252624016,1671626112.418,508,120955,68838
79978,10883.25128589725,1671626112.418,508,121025,68879
79978,10883.258319170483,1671626112.418,508,121025,68879
79979,10883.265352443717,1671626112.418,508,121071,68861
79979,10883.272385716951,1671626112.418,508,121071,68861
79980,10883.279418990185,1671626112.507,506,121048,68856
79980,10883.286452263419,1671626112.507,506,121048,68856
79981,10883.293485536653,1671626112.507,508,121138,68877
79981,10883.300518809887,1671626112.507,508,121138,68877
79982,10883.30755208312,1671626112.507,508,121104,68895
79982,10883.314585356355,1671626112.507,508,121104,68895
79983,10883.321618629589,1671626112.507,507,121145,68879
79983,10883.328651902822,1671626112.507,507,121145,68879
79984,10883.353353042827,1671626112.507,508,121178,68902
79984,10883.360357055735,1671626112.507,508,121178,68902
79985,10883.367361068644,1671626112.507,506,121158,68895
79985,10883.374365081552,1671626112.507,506,121158,68895
79986,10883.38136909446,1671626112.602,508,121188,68908
79986,10883.38837310737,1671626112.602,508,121188,68908
79987,10883.395377120278,1671626112.602,508,121246,68913
79987,10883.402381133186,1671626112.602,508,121246,68913
79988,10883.409385146095,1671626112.602,508,121201,68919
79988,10883.416389159003,1671626112.602,508,121201,68919
79989,10883.423393171912,1671626112.602,506,121164,68947
79989,10883.43039718482,1671626112.602,506,121164,68947
79990,10883.437401197729,1671626112.602,508,121230,68926
79990,10883.444405210637,1671626112.602,508,121230,68926
79991,10883.451409223546,1671626112.602,507,121220,68924
79991,10883.458413236454,1671626112.602,507,121220,68924
79992,10883.465417249363,1671626112.693,507,121317,68969
79992,10883.472421262271,1671626112.693,507,121317,68969
79993,10883.47942527518,1671626112.693,508,121262,68971
79993,10883.486429288088,1671626112.693,508,121262,68971
79994,10883.507996140339,1671626112.693,507,121361,68980
79994,10883.515177175776,1671626112.693,507,121361,68980
79995,10883.522358211212,1671626112.693,508,121323,68985
79995,10883.529539246649,1671626112.693,508,121323,68985
79996,10883.536720282085,1671626112.693,506,121247,68988
79996,10883.543901317522,1671626112.693,506,121247,68988
79997,10883.551082352958,1671626112.693,507,121340,68965
79997,10883.558263388395,1671626112.693,507,121340,68965
79998,10883.565444423832,1671626112.791,508,121404,69011
79998,10883.572625459268,1671626112.791,508,121404,69011
79999,10883.579806494705,1671626112.791,506,121382,69015
79999,10883.586987530141,1671626112.791,506,121382,69015
80000,10883.594168565578,1671626112.791,508,121417,69029
80000,10883.601349601015,1671626112.791,508,121417,69029
80001,10883.608530636451,1671626112.791,508,121471,69029
80001,10883.615711671888,1671626112.791,508,121471,69029
80002,10883.622892707324,1671626112.791,509,121425,69027
80002,10883.630073742761,1671626112.791,509,121425,69027
80003,10883.637254778198,1671626112.791,507,121479,69023
80003,10883.644435813634,1671626112.791,507,121479,69023
80004,10883.667649130639,1671626112.887,506,121435,69019
80004,10883.675335718006,1671626112.887,506,121435,69019
80005,10883.683022305373,1671626112.887,506,121383,69010
80005,10883.69070889274,1671626112.887,506,121383,69010
80006,10883.698395480107,1671626112.887,507,121222,68953
80006,10883.706082067474,1671626112.887,507,121222,68953
80007,10883.713768654841,1671626112.887,506,121139,68914
80007,10883.721455242208,1671626112.887,506,121139,68914
80008,10883.729141829575,1671626112.887,508,121022,68871
80008,10883.736828416942,1671626112.887,508,121022,68871
80009,10883.74451500431,1671626112.887,508,120976,68881
80009,10883.752201591677,1671626112.887,508,120976,68881
80010,10883.759888179044,1671626112.982,509,120867,68869
80010,10883.76757476641,1671626112.982,509,120867,68869
80011,10883.775261353778,1671626112.982,508,120805,68841
80011,10883.782947941145,1671626112.982,508,120805,68841
80012,10883.790634528512,1671626112.982,507,120783,68787
80012,10883.798321115879,1671626112.982,507,120783,68787
80013,10883.806007703246,1671626112.982,507,120809,68814
80013,10883.813694290613,1671626112.982,507,120809,68814
80014,10883.826677240528,1671626112.982,507,120699,68785
80014,10883.834100151314,1671626112.982,507,120699,68785
80015,10883.841523062101,1671626112.982,507,120718,68798
80015,10883.848945972888,1671626112.982,507,120718,68798
80016,10883.856368883675,1671626113.07,507,120680,68769
80016,10883.863791794462,1671626113.07,507,120680,68769
80017,10883.871214705248,1671626113.07,509,120658,68761
80017,10883.878637616035,1671626113.07,509,120658,68761
80018,10883.886060526822,1671626113.07,508,120605,68766
80018,10883.893483437609,1671626113.07,508,120605,68766
80019,10883.900906348395,1671626113.07,508,120667,68755
80019,10883.908329259182,1671626113.07,508,120667,68755
80020,10883.915752169969,1671626113.07,507,120690,68774
80020,10883.923175080756,1671626113.07,507,120690,68774
80021,10883.930597991543,1671626113.07,507,120629,68742
80021,10883.93802090233,1671626113.07,507,120629,68742
80022,10883.945443813116,1671626113.177,507,120653,68762
80022,10883.952866723903,1671626113.177,507,120653,68762
80023,10883.96028963469,1671626113.177,506,120691,68753
80023,10883.967712545476,1671626113.177,506,120691,68753
80024,10883.982089288946,1671626113.177,506,120691,68750
80024,10883.990036632717,1671626113.177,506,120691,68750
80025,10883.997983976487,1671626113.177,506,120628,68742
80025,10884.005931320258,1671626113.177,506,120628,68742
80026,10884.01387866403,1671626113.177,508,120581,68747
80026,10884.0218260078,1671626113.177,508,120581,68747
80027,10884.02977335157,1671626113.177,508,120592,68733
80027,10884.037720695342,1671626113.177,508,120592,68733
80028,10884.045668039113,1671626113.258,507,120576,68725
80028,10884.053615382883,1671626113.258,507,120576,68725
80029,10884.061562726654,1671626113.258,507,120600,68755
80029,10884.069510070425,1671626113.258,507,120600,68755
80030,10884.077457414196,1671626113.258,508,120505,68708
80030,10884.085404757967,1671626113.258,508,120505,68708
80031,10884.093352101738,1671626113.258,508,120584,68742
80031,10884.101299445509,1671626113.258,508,120584,68742
80032,10884.10924678928,1671626113.258,507,120588,68751
80032,10884.11719413305,1671626113.258,507,120588,68751
80033,10884.125141476821,1671626113.258,508,120561,68730
80033,10884.133088820592,1671626113.258,508,120561,68730
80034,10884.132596139109,1671626113.348,507,120533,68755
80034,10884.138908853936,1671626113.348,507,120533,68755
80035,10884.145221568764,1671626113.348,508,120615,68752
80035,10884.151534283592,1671626113.348,508,120615,68752
80036,10884.15784699842,1671626113.348,506,120567,68743
80036,10884.164159713247,1671626113.348,506,120567,68743
80037,10884.170472428075,1671626113.348,508,120594,68760
80037,10884.176785142903,1671626113.348,508,120594,68760
80038,10884.18309785773,1671626113.348,507,120661,68779
80038,10884.189410572559,1671626113.348,507,120661,68779
80039,10884.195723287386,1671626113.348,508,120623,68797
80039,10884.202036002214,1671626113.348,508,120623,68797
80040,10884.208348717042,1671626113.446,508,120664,68799
80040,10884.21466143187,1671626113.446,508,120664,68799
80041,10884.220974146698,1671626113.446,507,120659,68823
80041,10884.227286861525,1671626113.446,507,120659,68823
80042,10884.233599576353,1671626113.446,509,120717,68802
80042,10884.239912291181,1671626113.446,509,120717,68802
80043,10884.246225006009,1671626113.446,508,120769,68818
80043,10884.252537720837,1671626113.446,508,120769,68818
80044,10884.289578829023,1671626113.446,509,120753,68841
80044,10884.297153855276,1671626113.446,509,120753,68841
80045,10884.304728881529,1671626113.446,509,120728,68820
80045,10884.312303907782,1671626113.446,509,120728,68820
80046,10884.319878934035,1671626113.538,507,120781,68822
80046,10884.327453960288,1671626113.538,507,120781,68822
80047,10884.335028986541,1671626113.538,508,120753,68872
80047,10884.342604012794,1671626113.538,508,120753,68872
80048,10884.350179039047,1671626113.538,508,120747,68853
80048,10884.3577540653,1671626113.538,508,120747,68853
80049,10884.365329091554,1671626113.538,507,120843,68867
80049,10884.372904117807,1671626113.538,507,120843,68867
80050,10884.38047914406,1671626113.538,508,120820,68879
80050,10884.388054170313,1671626113.538,508,120820,68879
80051,10884.395629196566,1671626113.538,507,120803,68888
80051,10884.40320422282,1671626113.538,507,120803,68888
80052,10884.410779249072,1671626113.634,506,120811,68868
80052,10884.418354275325,1671626113.634,506,120811,68868
80053,10884.425929301578,1671626113.634,507,120813,68912
80053,10884.433504327832,1671626113.634,507,120813,68912
80054,10884.446147473185,1671626113.634,507,120794,68910
80054,10884.45356918842,1671626113.634,507,120794,68910
80055,10884.460990903654,1671626113.634,508,120955,68935
80055,10884.468412618888,1671626113.634,508,120955,68935
80056,10884.475834334122,1671626113.634,507,120879,68912
80056,10884.483256049356,1671626113.634,507,120879,68912
80057,10884.49067776459,1671626113.634,508,120954,68954
80057,10884.498099479824,1671626113.634,508,120954,68954
80058,10884.505521195058,1671626113.729,507,120907,68936
80058,10884.512942910293,1671626113.729,507,120907,68936
80059,10884.520364625527,1671626113.729,508,121012,68955
80059,10884.527786340761,1671626113.729,508,121012,68955
80060,10884.535208055995,1671626113.729,508,120996,68990
80060,10884.54262977123,1671626113.729,508,120996,68990
80061,10884.550051486463,1671626113.729,508,121002,68986
80061,10884.557473201698,1671626113.729,508,121002,68986
80062,10884.564894916932,1671626113.729,506,121037,68985
80062,10884.572316632166,1671626113.729,506,121037,68985
80063,10884.5797383474,1671626113.729,506,121048,69022
80063,10884.587160062634,1671626113.729,506,121048,69022
80064,10884.605841531617,1671626113.82,509,121053,68989
80064,10884.61330335102,1671626113.82,509,121053,68989
80065,10884.620765170423,1671626113.82,507,121116,68990
80065,10884.628226989826,1671626113.82,507,121116,68990
80066,10884.635688809229,1671626113.82,507,121110,69028
80066,10884.643150628632,1671626113.82,507,121110,69028
80067,10884.650612448035,1671626113.82,510,121180,69036
80067,10884.658074267438,1671626113.82,510,121180,69036
80068,10884.66553608684,1671626113.82,507,121182,69057
80068,10884.672997906244,1671626113.82,507,121182,69057
80069,10884.680459725647,1671626113.82,507,121137,69048
80069,10884.68792154505,1671626113.82,507,121137,69048
80070,10884.695383364453,1671626113.912,507,121115,69009
80070,10884.702845183856,1671626113.912,507,121115,69009
80071,10884.710307003259,1671626113.912,507,120998,68975
80071,10884.717768822662,1671626113.912,507,120998,68975
80072,10884.725230642065,1671626113.912,507,120882,68936
80072,10884.732692461468,1671626113.912,507,120882,68936
80073,10884.740154280871,1671626113.912,507,120773,68903
80073,10884.747616100274,1671626113.912,507,120773,68903
80074,10884.756939928531,1671626113.912,508,120668,68882
80074,10884.76409667789,1671626113.912,508,120668,68882
80075,10884.77125342725,1671626113.912,507,120639,68852
80075,10884.77841017661,1671626113.912,507,120639,68852
80076,10884.78556692597,1671626114.019,508,120588,68838
80076,10884.79272367533,1671626114.019,508,120588,68838
80077,10884.799880424689,1671626114.019,508,120564,68836
80077,10884.807037174049,1671626114.019,508,120564,68836
80078,10884.814193923408,1671626114.019,507,120582,68819
80078,10884.821350672768,1671626114.019,507,120582,68819
80079,10884.828507422128,1671626114.019,507,120490,68828
80079,10884.835664171487,1671626114.019,507,120490,68828
80080,10884.842820920847,1671626114.019,508,120438,68798
80080,10884.849977670206,1671626114.019,508,120438,68798
80081,10884.857134419566,1671626114.019,508,120469,68812
80081,10884.864291168926,1671626114.019,508,120469,68812
80082,10884.871447918285,1671626114.099,508,120493,68821
80082,10884.878604667645,1671626114.099,508,120493,68821
80083,10884.885761417005,1671626114.099,508,120456,68794
80083,10884.892918166364,1671626114.099,508,120456,68794
80084,10884.92213535944,1671626114.099,509,120456,68798
80084,10884.929023942314,1671626114.099,509,120456,68798
80085,10884.935912525187,1671626114.099,506,120441,68793
80085,10884.94280110806,1671626114.099,506,120441,68793
80086,10884.949689690933,1671626114.099,506,120435,68789
80086,10884.956578273806,1671626114.099,506,120435,68789
80087,10884.96346685668,1671626114.099,506,120381,68778
80087,10884.970355439553,1671626114.099,506,120381,68778
80088,10884.977244022426,1671626114.194,506,120427,68814
80088,10884.9841326053,1671626114.194,506,120427,68814
80089,10884.991021188172,1671626114.194,508,120398,68797
80089,10884.997909771046,1671626114.194,508,120398,68797
80090,10885.004798353919,1671626114.194,508,120380,68809
80090,10885.011686936792,1671626114.194,508,120380,68809
80091,10885.018575519665,1671626114.194,509,120406,68780
80091,10885.025464102539,1671626114.194,509,120406,68780
80092,10885.032352685412,1671626114.194,507,120380,68762
80092,10885.039241268285,1671626114.194,507,120380,68762
80093,10885.046129851158,1671626114.194,508,120344,68770
80093,10885.053018434031,1671626114.194,508,120344,68770
80094,10885.070157258027,1671626114.289,508,120338,68768
80094,10885.077531338145,1671626114.289,508,120338,68768
80095,10885.084905418264,1671626114.289,507,120341,68786
80095,10885.092279498382,1671626114.289,507,120341,68786
80096,10885.0996535785,1671626114.289,508,120348,68770
80096,10885.107027658618,1671626114.289,508,120348,68770
80097,10885.114401738736,1671626114.289,508,120370,68778
80097,10885.121775818854,1671626114.289,508,120370,68778
80098,10885.129149898972,1671626114.289,508,120371,68774
80098,10885.13652397909,1671626114.289,508,120371,68774
80099,10885.143898059208,1671626114.289,509,120368,68808
80099,10885.151272139326,1671626114.289,509,120368,68808
80100,10885.158646219445,1671626114.388,506,120378,68783
80100,10885.166020299563,1671626114.388,506,120378,68783
80101,10885.17339437968,1671626114.388,508,120361,68813
80101,10885.180768459799,1671626114.388,508,120361,68813
80102,10885.188142539917,1671626114.388,508,120408,68806
80102,10885.195516620035,1671626114.388,508,120408,68806
80103,10885.202890700153,1671626114.388,508,120351,68805
80103,10885.210264780271,1671626114.388,508,120351,68805
80104,10885.231565068805,1671626114.388,509,120488,68839
80104,10885.239306062027,1671626114.388,509,120488,68839
80105,10885.247047055249,1671626114.388,507,120441,68835
80105,10885.25478804847,1671626114.388,507,120441,68835
80106,10885.262529041693,1671626114.481,508,120498,68849
80106,10885.270270034915,1671626114.481,508,120498,68849
80107,10885.278011028136,1671626114.481,506,120513,68851
80107,10885.285752021358,1671626114.481,506,120513,68851
80108,10885.29349301458,1671626114.481,506,120459,68844
80108,10885.301234007802,1671626114.481,506,120459,68844
80109,10885.308975001024,1671626114.481,508,120483,68864
80109,10885.316715994246,1671626114.481,508,120483,68864
80110,10885.324456987468,1671626114.481,508,120602,68874
80110,10885.33219798069,1671626114.481,508,120602,68874
80111,10885.339938973912,1671626114.481,507,120570,68895
80111,10885.347679967133,1671626114.481,507,120570,68895
80112,10885.355420960355,1671626114.568,508,120511,68869
80112,10885.363161953577,1671626114.568,508,120511,68869
80113,10885.3709029468,1671626114.568,508,120641,68888
80113,10885.378643940021,1671626114.568,508,120641,68888
80114,10885.385831752785,1671626114.568,507,120603,68904
80114,10885.39274798421,1671626114.568,507,120603,68904
80115,10885.399664215634,1671626114.568,507,120628,68922
80115,10885.40658044706,1671626114.568,507,120628,68922
80116,10885.413496678484,1671626114.568,507,120594,68930
80116,10885.420412909909,1671626114.568,507,120594,68930
80117,10885.427329141334,1671626114.568,507,120609,68933
80117,10885.434245372759,1671626114.568,507,120609,68933
80118,10885.441161604183,1671626114.661,505,120672,68958
80118,10885.448077835608,1671626114.661,505,120672,68958
80119,10885.454994067033,1671626114.661,509,120720,68954
80119,10885.461910298458,1671626114.661,509,120720,68954
80120,10885.468826529883,1671626114.661,509,120707,68979
80120,10885.475742761308,1671626114.661,509,120707,68979
80121,10885.482658992732,1671626114.661,508,120703,68962
80121,10885.489575224157,1671626114.661,508,120703,68962
80122,10885.496491455582,1671626114.661,507,120738,68947
80122,10885.503407687007,1671626114.661,507,120738,68947
80123,10885.510323918432,1671626114.661,508,120711,68979
80123,10885.517240149857,1671626114.661,508,120711,68979
80124,10885.536889516447,1671626114.759,508,120799,68975
80124,10885.544152120125,1671626114.759,508,120799,68975
80125,10885.551414723803,1671626114.759,507,120799,68980
80125,10885.55867732748,1671626114.759,507,120799,68980
80126,10885.565939931159,1671626114.759,508,120843,68997
80126,10885.573202534837,1671626114.759,508,120843,68997
80127,10885.580465138515,1671626114.759,507,120838,69004
80127,10885.587727742193,1671626114.759,507,120838,69004
80128,10885.594990345871,1671626114.759,508,120878,69035
80128,10885.60225294955,1671626114.759,508,120878,69035
80129,10885.609515553228,1671626114.759,509,120863,69044
80129,10885.616778156906,1671626114.759,509,120863,69044
80130,10885.624040760584,1671626114.85,509,120914,69036
80130,10885.631303364262,1671626114.85,509,120914,69036
80131,10885.63856596794,1671626114.85,508,120883,69066
80131,10885.645828571618,1671626114.85,508,120883,69066
80132,10885.653091175296,1671626114.85,507,120926,69071
80132,10885.660353778974,1671626114.85,507,120926,69071
80133,10885.667616382652,1671626114.85,509,120989,69071
80133,10885.67487898633,1671626114.85,509,120989,69071
80134,10885.695583767701,1671626114.85,509,120979,69079
80134,10885.702738795975,1671626114.85,509,120979,69079
80135,10885.709893824249,1671626114.85,510,121043,69099
80135,10885.717048852523,1671626114.85,510,121043,69099
80136,10885.724203880796,1671626114.941,508,121031,69135
80136,10885.73135890907,1671626114.941,508,121031,69135
80137,10885.738513937344,1671626114.941,508,121077,69119
80137,10885.745668965617,1671626114.941,508,121077,69119
80138,10885.752823993891,1671626114.941,508,121045,69119
80138,10885.759979022165,1671626114.941,508,121045,69119
80139,10885.767134050438,1671626114.941,507,121047,69102
