id,lsl_ts,unix_ts,ambient,ir,red
19380,8854.535907450001,1671624083.683,556,130651,91504
19380,8854.535907450001,1671624083.683,556,130651,91504
19381,8854.5385938,1671624083.683,536,154803,96999
19381,8854.5385938,1671624083.683,536,154803,96999
19382,8854.54128015,1671624083.683,536,154839,97032
19382,8854.54128015,1671624083.683,536,154839,97032
19383,8854.543966500001,1671624083.683,532,154719,97071
19383,8854.543966500001,1671624083.683,532,154719,97071
19384,8854.54665285,1671624083.683,534,154767,97078
19384,8854.54665285,1671624083.683,534,154767,97078
19385,8854.5493392,1671624083.683,533,154650,97078
19385,8854.5493392,1671624083.683,533,154650,97078
19386,8854.555888800001,1671624083.722,533,154559,97088
19386,8854.555888800001,1671624083.722,533,154559,97088
19387,8854.5624384,1671624083.722,535,154592,97105
19387,8854.5624384,1671624083.722,535,154592,97105
19388,8854.568987999999,1671624083.722,535,154614,97113
19388,8854.568987999999,1671624083.722,535,154614,97113
19389,8854.5755376,1671624083.722,534,154660,97133
19389,8854.5755376,1671624083.722,534,154660,97133
19390,8854.5820872,1671624083.722,534,154618,97140
19390,8854.5820872,1671624083.722,534,154618,97140
19391,8854.5886368,1671624083.722,532,154574,97165
19391,8854.5886368,1671624083.722,532,154574,97165
19392,8854.596861983333,1671624083.772,532,154552,97162
19392,8854.596861983333,1671624083.772,532,154552,97162
19393,8854.605087166667,1671624083.772,532,154588,97181
19393,8854.605087166667,1671624083.772,532,154588,97181
19394,8854.61331235,1671624083.772,534,154526,97187
19394,8854.61331235,1671624083.772,534,154526,97187
19395,8854.621537533332,1671624083.772,533,154586,97201
19395,8854.621537533332,1671624083.772,533,154586,97201
19396,8854.629762716666,1671624083.772,534,154521,97204
19396,8854.629762716666,1671624083.772,534,154521,97204
19397,8854.6379879,1671624083.772,533,154613,97213
19397,8854.6379879,1671624083.772,533,154613,97213
19398,8854.652077966666,1671624083.856,533,154516,97214
19398,8854.652077966666,1671624083.856,533,154516,97214
19399,8854.666168033333,1671624083.856,532,154608,97210
19399,8854.666168033333,1671624083.856,532,154608,97210
19400,8854.680258100001,1671624083.856,531,154550,97252
19400,8854.680258100001,1671624083.856,531,154550,97252
19401,8854.694348166668,1671624083.856,531,154516,97236
19401,8854.694348166668,1671624083.856,531,154516,97236
19402,8854.708438233334,1671624083.856,530,154561,97219
19402,8854.708438233334,1671624083.856,530,154561,97219
19403,8854.7225283,1671624083.856,533,154483,97247
19403,8854.7225283,1671624083.856,533,154483,97247
19404,8854.737819116668,1671624083.948,533,154520,97248
19404,8854.737819116668,1671624083.948,533,154520,97248
19405,8854.753109933334,1671624083.948,534,154506,97261
19405,8854.753109933334,1671624083.948,534,154506,97261
19406,8854.76840075,1671624083.948,533,154454,97236
19406,8854.76840075,1671624083.948,533,154454,97236
19407,8854.783691566667,1671624083.948,532,154494,97255
19407,8854.783691566667,1671624083.948,532,154494,97255
19408,8854.798982383334,1671624083.948,534,154524,97272
19408,8854.798982383334,1671624083.948,534,154524,97272
19409,8854.8142732,1671624083.948,532,154520,97294
19409,8854.8142732,1671624083.948,532,154520,97294
19410,8854.831493483332,1671624084.051,534,154520,97282
19410,8854.831493483332,1671624084.051,534,154520,97282
19411,8854.848713766667,1671624084.051,533,154552,97304
19411,8854.848713766667,1671624084.051,533,154552,97304
19412,8854.86593405,1671624084.051,534,154556,97301
19412,8854.86593405,1671624084.051,534,154556,97301
19413,8854.883154333333,1671624084.051,534,154645,97340
19413,8854.883154333333,1671624084.051,534,154645,97340
19414,8854.900374616667,1671624084.051,533,154609,97371
19414,8854.900374616667,1671624084.051,533,154609,97371
19415,8854.9175949,1671624084.051,533,154626,97372
19415,8854.9175949,1671624084.051,533,154626,97372
19416,8854.93230145,1671624084.139,533,154686,97406
19416,8854.93230145,1671624084.139,533,154686,97406
19417,8854.947008,1671624084.139,532,154619,97418
19417,8854.947008,1671624084.139,532,154619,97418
19418,8854.96171455,1671624084.139,533,154671,97436
19418,8854.96171455,1671624084.139,533,154671,97436
19419,8854.9764211,1671624084.139,532,154737,97457
19419,8854.9764211,1671624084.139,532,154737,97457
19420,8854.991127649999,1671624084.139,534,154756,97452
19420,8854.991127649999,1671624084.139,534,154756,97452
19421,8855.0058342,1671624084.139,532,154734,97451
19421,8855.0058342,1671624084.139,532,154734,97451
19422,8855.021966366667,1671624084.236,534,154760,97471
19422,8855.021966366667,1671624084.236,534,154760,97471
19423,8855.038098533332,1671624084.236,532,154796,97444
19423,8855.038098533332,1671624084.236,532,154796,97444
19424,8855.0542307,1671624084.236,532,154786,97493
19424,8855.0542307,1671624084.236,532,154786,97493
19425,8855.070362866667,1671624084.236,531,154851,97474
19425,8855.070362866667,1671624084.236,531,154851,97474
19426,8855.086495033333,1671624084.236,534,154858,97479
19426,8855.086495033333,1671624084.236,534,154858,97479
19427,8855.1026272,1671624084.236,532,154846,97515
19427,8855.1026272,1671624084.236,532,154846,97515
19428,8855.118916416666,1671624084.334,534,154821,97495
19428,8855.118916416666,1671624084.334,534,154821,97495
19429,8855.135205633333,1671624084.334,535,154805,97510
19429,8855.135205633333,1671624084.334,535,154805,97510
19430,8855.15149485,1671624084.334,534,154813,97496
19430,8855.15149485,1671624084.334,534,154813,97496
19431,8855.167784066667,1671624084.334,534,154727,97466
19431,8855.167784066667,1671624084.334,534,154727,97466
19432,8855.184073283333,1671624084.334,533,154740,97470
19432,8855.184073283333,1671624084.334,533,154740,97470
19433,8855.2003625,1671624084.334,532,154654,97475
19433,8855.2003625,1671624084.334,532,154654,97475
19434,8855.21408685,1671624084.416,534,154729,97474
19434,8855.21408685,1671624084.416,534,154729,97474
19435,8855.2278112,1671624084.416,532,154572,97448
19435,8855.2278112,1671624084.416,532,154572,97448
19436,8855.24153555,1671624084.416,534,154651,97441
19436,8855.24153555,1671624084.416,534,154651,97441
19437,8855.2552599,1671624084.416,534,154643,97413
19437,8855.2552599,1671624084.416,534,154643,97413
19438,8855.26898425,1671624084.416,533,154576,97433
19438,8855.26898425,1671624084.416,533,154576,97433
19439,8855.2827086,1671624084.416,533,154524,97417
19439,8855.2827086,1671624084.416,533,154524,97417
19440,8855.299272866667,1671624084.516,531,154510,97431
19440,8855.299272866667,1671624084.516,531,154510,97431
19441,8855.315837133334,1671624084.516,534,154463,97410
19441,8855.315837133334,1671624084.516,534,154463,97410
19442,8855.332401399999,1671624084.516,533,154516,97419
19442,8855.332401399999,1671624084.516,533,154516,97419
19443,8855.348965666666,1671624084.516,533,154592,97413
19443,8855.348965666666,1671624084.516,533,154592,97413
19444,8855.365529933333,1671624084.516,535,154505,97407
19444,8855.365529933333,1671624084.516,535,154505,97407
19445,8855.3820942,1671624084.516,534,154506,97400
19445,8855.3820942,1671624084.516,534,154506,97400
19446,8855.396754516667,1671624084.604,535,154549,97428
19446,8855.396754516667,1671624084.604,535,154549,97428
19447,8855.411414833334,1671624084.604,533,154495,97416
19447,8855.411414833334,1671624084.604,533,154495,97416
19448,8855.42607515,1671624084.604,532,154503,97431
19448,8855.42607515,1671624084.604,532,154503,97431
19449,8855.440735466667,1671624084.604,533,154530,97398
19449,8855.440735466667,1671624084.604,533,154530,97398
19450,8855.455395783334,1671624084.604,534,154527,97420
19450,8855.455395783334,1671624084.604,534,154527,97420
19451,8855.4700561,1671624084.604,534,154464,97363
19451,8855.4700561,1671624084.604,534,154464,97363
19452,8855.4868201,1671624084.704,534,154526,97411
19452,8855.4868201,1671624084.704,534,154526,97411
19453,8855.5035841,1671624084.704,535,154543,97424
19453,8855.5035841,1671624084.704,535,154543,97424
19454,8855.5203481,1671624084.704,533,154477,97415
19454,8855.5203481,1671624084.704,533,154477,97415
19455,8855.5371121,1671624084.704,532,154447,97390
19455,8855.5371121,1671624084.704,532,154447,97390
19456,8855.5538761,1671624084.704,533,154536,97403
19456,8855.5538761,1671624084.704,533,154536,97403
19457,8855.5706401,1671624084.704,532,154437,97388
19457,8855.5706401,1671624084.704,532,154437,97388
19458,8855.587915833334,1671624084.808,532,154566,97431
19458,8855.587915833334,1671624084.808,532,154566,97431
19459,8855.605191566667,1671624084.808,535,154478,97396
19459,8855.605191566667,1671624084.808,535,154478,97396
19460,8855.6224673,1671624084.808,534,154499,97413
19460,8855.6224673,1671624084.808,534,154499,97413
19461,8855.639743033335,1671624084.808,534,154549,97425
19461,8855.639743033335,1671624084.808,534,154549,97425
19462,8855.657018766668,1671624084.808,534,154557,97437
19462,8855.657018766668,1671624084.808,534,154557,97437
19463,8855.6742945,1671624084.808,535,154567,97412
19463,8855.6742945,1671624084.808,535,154567,97412
19464,8855.6892334,1671624084.897,533,154536,97417
19464,8855.6892334,1671624084.897,533,154536,97417
19465,8855.7041723,1671624084.897,532,154597,97444
19465,8855.7041723,1671624084.897,532,154597,97444
19466,8855.7191112,1671624084.897,533,154621,97445
19466,8855.7191112,1671624084.897,533,154621,97445
19467,8855.7340501,1671624084.897,532,154649,97431
19467,8855.7340501,1671624084.897,532,154649,97431
19468,8855.748989,1671624084.897,534,154622,97440
19468,8855.748989,1671624084.897,534,154622,97440
19469,8855.7639279,1671624084.897,533,154645,97448
19469,8855.7639279,1671624084.897,533,154645,97448
19470,8855.782155633333,1671624085.007,533,154696,97423
19470,8855.782155633333,1671624085.007,533,154696,97423
19471,8855.800383366666,1671624085.007,532,154650,97438
19471,8855.800383366666,1671624085.007,532,154650,97438
19472,8855.8186111,1671624085.007,532,154684,97431
19472,8855.8186111,1671624085.007,532,154684,97431
19473,8855.836838833333,1671624085.007,532,154688,97418
19473,8855.836838833333,1671624085.007,532,154688,97418
19474,8855.855066566666,1671624085.007,533,154641,97436
19474,8855.855066566666,1671624085.007,533,154641,97436
19475,8855.8732943,1671624085.007,532,154639,97424
19475,8855.8732943,1671624085.007,532,154639,97424
19476,8855.8844866,1671624085.074,534,154632,97395
19476,8855.8844866,1671624085.074,534,154632,97395
19477,8855.8956789,1671624085.074,534,154533,97406
19477,8855.8956789,1671624085.074,534,154533,97406
19478,8855.9068712,1671624085.074,532,154540,97367
19478,8855.9068712,1671624085.074,532,154540,97367
19479,8855.9180635,1671624085.074,532,154612,97389
19479,8855.9180635,1671624085.074,532,154612,97389
19480,8855.9292558,1671624085.074,532,154473,97368
19480,8855.9292558,1671624085.074,532,154473,97368
19481,8855.9404481,1671624085.074,532,154454,97361
19481,8855.9404481,1671624085.074,532,154454,97361
19482,8855.956500416667,1671624085.17,533,154382,97312
19482,8855.956500416667,1671624085.17,533,154382,97312
19483,8855.972552733334,1671624085.17,534,154415,97343
19483,8855.972552733334,1671624085.17,534,154415,97343
19484,8855.988605049999,1671624085.17,535,154451,97338
19484,8855.988605049999,1671624085.17,535,154451,97338
19485,8856.004657366666,1671624085.17,533,154413,97337
19485,8856.004657366666,1671624085.17,533,154413,97337
19486,8856.020709683333,1671624085.17,534,154380,97304
19486,8856.020709683333,1671624085.17,534,154380,97304
19487,8856.036762,1671624085.17,533,154361,97300
19487,8856.036762,1671624085.17,533,154361,97300
19488,8856.051717266666,1671624085.26,531,154443,97322
19488,8856.051717266666,1671624085.26,531,154443,97322
19489,8856.066672533334,1671624085.26,530,154430,97308
19489,8856.066672533334,1671624085.26,530,154430,97308
19490,8856.0816278,1671624085.26,533,154386,97318
19490,8856.0816278,1671624085.26,533,154386,97318
19491,8856.096583066666,1671624085.26,533,154390,97292
19491,8856.096583066666,1671624085.26,533,154390,97292
19492,8856.111538333334,1671624085.26,535,154374,97275
19492,8856.111538333334,1671624085.26,535,154374,97275
19493,8856.1264936,1671624085.26,534,154416,97311
19493,8856.1264936,1671624085.26,534,154416,97311
19494,8856.146347400001,1671624085.379,535,154369,97286
19494,8856.146347400001,1671624085.379,535,154369,97286
19495,8856.1662012,1671624085.379,533,154441,97290
19495,8856.1662012,1671624085.379,533,154441,97290
19496,8856.186055,1671624085.379,534,154413,97289
19496,8856.186055,1671624085.379,534,154413,97289
19497,8856.2059088,1671624085.379,532,154338,97288
19497,8856.2059088,1671624085.379,532,154338,97288
19498,8856.2257626,1671624085.379,534,154362,97286
19498,8856.2257626,1671624085.379,534,154362,97286
19499,8856.2456164,1671624085.379,534,154333,97283
19499,8856.2456164,1671624085.379,534,154333,97283
19500,8856.255669916667,1671624085.439,533,154404,97259
19500,8856.255669916667,1671624085.439,533,154404,97259
19501,8856.265723433333,1671624085.439,535,154283,97274
19501,8856.265723433333,1671624085.439,535,154283,97274
19502,8856.275776949999,1671624085.439,533,154377,97254
19502,8856.275776949999,1671624085.439,533,154377,97254
19503,8856.285830466666,1671624085.439,533,154361,97273
19503,8856.285830466666,1671624085.439,533,154361,97273
19504,8856.295883983334,1671624085.439,533,154373,97275
19504,8856.295883983334,1671624085.439,533,154373,97275
19505,8856.3059375,1671624085.439,533,154368,97265
19505,8856.3059375,1671624085.439,533,154368,97265
19506,8856.322470899999,1671624085.539,534,154466,97277
19506,8856.322470899999,1671624085.539,534,154466,97277
19507,8856.3390043,1671624085.539,532,154419,97290
19507,8856.3390043,1671624085.539,532,154419,97290
19508,8856.3555377,1671624085.539,535,154411,97284
19508,8856.3555377,1671624085.539,535,154411,97284
19509,8856.372071099999,1671624085.539,535,154508,97289
19509,8856.372071099999,1671624085.539,535,154508,97289
19510,8856.3886045,1671624085.539,533,154460,97290
19510,8856.3886045,1671624085.539,533,154460,97290
19511,8856.4051379,1671624085.539,533,154482,97317
19511,8856.4051379,1671624085.539,533,154482,97317
19512,8856.422310316666,1671624085.642,533,154546,97314
19512,8856.422310316666,1671624085.642,533,154546,97314
19513,8856.439482733333,1671624085.642,531,154475,97295
19513,8856.439482733333,1671624085.642,531,154475,97295
19514,8856.45665515,1671624085.642,533,154484,97302
19514,8856.45665515,1671624085.642,533,154484,97302
19515,8856.473827566666,1671624085.642,533,154558,97289
19515,8856.473827566666,1671624085.642,533,154558,97289
19516,8856.490999983333,1671624085.642,534,154600,97297
19516,8856.490999983333,1671624085.642,534,154600,97297
19517,8856.5081724,1671624085.642,535,154610,97301
19517,8856.5081724,1671624085.642,535,154610,97301
19518,8856.522183766667,1671624085.726,534,154656,97319
19518,8856.522183766667,1671624085.726,534,154656,97319
19519,8856.536195133333,1671624085.726,534,154559,97306
19519,8856.536195133333,1671624085.726,534,154559,97306
19520,8856.5502065,1671624085.726,534,154548,97283
19520,8856.5502065,1671624085.726,534,154548,97283
19521,8856.564217866668,1671624085.726,533,154559,97277
19521,8856.564217866668,1671624085.726,533,154559,97277
19522,8856.578229233333,1671624085.726,534,154484,97275
19522,8856.578229233333,1671624085.726,534,154484,97275
19523,8856.5922406,1671624085.726,534,154412,97246
19523,8856.5922406,1671624085.726,534,154412,97246
19524,8856.608072383335,1671624085.821,536,154427,97247
19524,8856.608072383335,1671624085.821,536,154427,97247
19525,8856.623904166667,1671624085.821,535,154466,97257
19525,8856.623904166667,1671624085.821,535,154466,97257
19526,8856.63973595,1671624085.821,535,154393,97237
19526,8856.63973595,1671624085.821,535,154393,97237
19527,8856.655567733334,1671624085.821,536,154375,97241
19527,8856.655567733334,1671624085.821,536,154375,97241
19528,8856.671399516666,1671624085.821,534,154392,97245
19528,8856.671399516666,1671624085.821,534,154392,97245
19529,8856.6872313,1671624085.821,534,154342,97207
19529,8856.6872313,1671624085.821,534,154342,97207
19530,8856.7023542,1671624085.912,534,154417,97219
19530,8856.7023542,1671624085.912,534,154417,97219
19531,8856.7174771,1671624085.912,536,154362,97244
19531,8856.7174771,1671624085.912,536,154362,97244
19532,8856.7326,1671624085.912,536,154348,97225
19532,8856.7326,1671624085.912,536,154348,97225
19533,8856.7477229,1671624085.912,537,154411,97253
19533,8856.7477229,1671624085.912,537,154411,97253
19534,8856.7628458,1671624085.912,536,154367,97212
19534,8856.7628458,1671624085.912,536,154367,97212
19535,8856.7779687,1671624085.912,535,154403,97250
19535,8856.7779687,1671624085.912,535,154403,97250
19536,8856.796327600001,1671624086.022,535,154433,97214
19536,8856.796327600001,1671624086.022,535,154433,97214
19537,8856.8146865,1671624086.022,534,154421,97238
19537,8856.8146865,1671624086.022,534,154421,97238
19538,8856.833045399999,1671624086.022,534,154371,97208
19538,8856.833045399999,1671624086.022,534,154371,97208
19539,8856.8514043,1671624086.022,535,154390,97208
19539,8856.8514043,1671624086.022,535,154390,97208
19540,8856.8697632,1671624086.022,534,154412,97237
19540,8856.8697632,1671624086.022,534,154412,97237
19541,8856.8881221,1671624086.022,537,154384,97198
19541,8856.8881221,1671624086.022,537,154384,97198
19542,8856.90629585,1671624086.131,534,154375,97203
19542,8856.90629585,1671624086.131,534,154375,97203
19543,8856.924469599999,1671624086.131,535,154394,97217
19543,8856.924469599999,1671624086.131,535,154394,97217
19544,8856.94264335,1671624086.131,534,154397,97207
19544,8856.94264335,1671624086.131,534,154397,97207
19545,8856.9608171,1671624086.131,534,154409,97235
19545,8856.9608171,1671624086.131,534,154409,97235
19546,8856.978990849999,1671624086.131,534,154443,97224
19546,8856.978990849999,1671624086.131,534,154443,97224
19547,8856.9971646,1671624086.131,535,154445,97230
19547,8856.9971646,1671624086.131,535,154445,97230
19548,8857.009384783332,1671624086.204,536,154454,97219
19548,8857.009384783332,1671624086.204,536,154454,97219
19549,8857.021604966667,1671624086.204,536,154445,97228
19549,8857.021604966667,1671624086.204,536,154445,97228
19550,8857.03382515,1671624086.204,536,154474,97211
19550,8857.03382515,1671624086.204,536,154474,97211
19551,8857.046045333333,1671624086.204,536,154457,97219
19551,8857.046045333333,1671624086.204,536,154457,97219
19552,8857.058265516667,1671624086.204,533,154504,97220
19552,8857.058265516667,1671624086.204,533,154504,97220
19553,8857.0704857,1671624086.204,533,154493,97242
19553,8857.0704857,1671624086.204,533,154493,97242
19554,8857.086514683333,1671624086.3,534,154428,97242
19554,8857.086514683333,1671624086.3,534,154428,97242
19555,8857.102543666666,1671624086.3,534,154501,97218
19555,8857.102543666666,1671624086.3,534,154501,97218
19556,8857.11857265,1671624086.3,535,154574,97229
19556,8857.11857265,1671624086.3,535,154574,97229
19557,8857.134601633334,1671624086.3,536,154536,97254
19557,8857.134601633334,1671624086.3,536,154536,97254
19558,8857.150630616667,1671624086.3,536,154598,97208
19558,8857.150630616667,1671624086.3,536,154598,97208
19559,8857.1666596,1671624086.3,535,154543,97246
19559,8857.1666596,1671624086.3,535,154543,97246
19560,8857.181222016667,1671624086.388,534,154664,97267
19560,8857.181222016667,1671624086.388,534,154664,97267
19561,8857.195784433334,1671624086.388,533,154612,97244
19561,8857.195784433334,1671624086.388,533,154612,97244
19562,8857.210346849999,1671624086.388,533,154612,97270
19562,8857.210346849999,1671624086.388,533,154612,97270
19563,8857.224909266666,1671624086.388,533,154524,97244
19563,8857.224909266666,1671624086.388,533,154524,97244
19564,8857.239471683333,1671624086.388,536,154699,97256
19564,8857.239471683333,1671624086.388,536,154699,97256
19565,8857.2540341,1671624086.388,535,154662,97266
19565,8857.2540341,1671624086.388,535,154662,97266
19566,8857.2708328,1671624086.488,534,154703,97244
19566,8857.2708328,1671624086.488,534,154703,97244
19567,8857.2876315,1671624086.488,535,154646,97254
19567,8857.2876315,1671624086.488,535,154646,97254
19568,8857.3044302,1671624086.488,534,154681,97234
19568,8857.3044302,1671624086.488,534,154681,97234
19569,8857.3212289,1671624086.488,532,154645,97222
19569,8857.3212289,1671624086.488,532,154645,97222
19570,8857.338027599999,1671624086.488,532,154612,97212
19570,8857.338027599999,1671624086.488,532,154612,97212
19571,8857.3548263,1671624086.488,533,154541,97181
19571,8857.3548263,1671624086.488,533,154541,97181
19572,8857.369117533333,1671624086.574,535,154533,97188
19572,8857.369117533333,1671624086.574,535,154533,97188
19573,8857.383408766666,1671624086.574,535,154574,97187
19573,8857.383408766666,1671624086.574,535,154574,97187
19574,8857.3977,1671624086.574,535,154556,97202
19574,8857.3977,1671624086.574,535,154556,97202
19575,8857.411991233334,1671624086.574,535,154454,97154
19575,8857.411991233334,1671624086.574,535,154454,97154
19576,8857.426282466666,1671624086.574,533,154491,97196
19576,8857.426282466666,1671624086.574,533,154491,97196
19577,8857.4405737,1671624086.574,532,154527,97188
19577,8857.4405737,1671624086.574,532,154527,97188
19578,8857.456795066666,1671624086.671,532,154491,97172
19578,8857.456795066666,1671624086.671,532,154491,97172
19579,8857.473016433332,1671624086.671,533,154541,97157
19579,8857.473016433332,1671624086.671,533,154541,97157
19580,8857.4892378,1671624086.671,534,154459,97161
19580,8857.4892378,1671624086.671,534,154459,97161
19581,8857.505459166667,1671624086.671,535,154497,97169
19581,8857.505459166667,1671624086.671,535,154497,97169
19582,8857.521680533333,1671624086.671,534,154613,97156
19582,8857.521680533333,1671624086.671,534,154613,97156
19583,8857.5379019,1671624086.671,534,154571,97158
19583,8857.5379019,1671624086.671,534,154571,97158
19584,8857.552484966665,1671624086.759,531,154511,97131
19584,8857.552484966665,1671624086.759,531,154511,97131
19585,8857.567068033333,1671624086.759,532,154528,97147
19585,8857.567068033333,1671624086.759,532,154528,97147
19586,8857.5816511,1671624086.759,532,154516,97141
19586,8857.5816511,1671624086.759,532,154516,97141
19587,8857.596234166665,1671624086.759,533,154485,97144
19587,8857.596234166665,1671624086.759,533,154485,97144
19588,8857.610817233333,1671624086.759,533,154530,97154
19588,8857.610817233333,1671624086.759,533,154530,97154
19589,8857.6254003,1671624086.759,537,154597,97122
19589,8857.6254003,1671624086.759,537,154597,97122
19590,8857.641097683332,1671624086.853,534,154582,97130
19590,8857.641097683332,1671624086.853,534,154582,97130
19591,8857.656795066667,1671624086.853,534,154554,97116
19591,8857.656795066667,1671624086.853,534,154554,97116
19592,8857.67249245,1671624086.853,532,154543,97130
19592,8857.67249245,1671624086.853,532,154543,97130
19593,8857.688189833332,1671624086.853,533,154525,97101
19593,8857.688189833332,1671624086.853,533,154525,97101
19594,8857.703887216667,1671624086.853,532,154623,97120
19594,8857.703887216667,1671624086.853,532,154623,97120
19595,8857.7195846,1671624086.853,533,154548,97119
19595,8857.7195846,1671624086.853,533,154548,97119
19596,8857.73993675,1671624086.975,533,154560,97100
19596,8857.73993675,1671624086.975,533,154560,97100
19597,8857.760288899999,1671624086.975,534,154591,97137
19597,8857.760288899999,1671624086.975,534,154591,97137
19598,8857.78064105,1671624086.975,534,154612,97129
19598,8857.78064105,1671624086.975,534,154612,97129
19599,8857.8009932,1671624086.975,533,154570,97126
19599,8857.8009932,1671624086.975,533,154570,97126
19600,8857.82134535,1671624086.975,532,154591,97126
19600,8857.82134535,1671624086.975,532,154591,97126
19601,8857.8416975,1671624086.975,531,154636,97108
19601,8857.8416975,1671624086.975,531,154636,97108
19602,8857.8549456,1671624087.055,532,154660,97125
19602,8857.8549456,1671624087.055,532,154660,97125
19603,8857.8681937,1671624087.055,534,154686,97114
19603,8857.8681937,1671624087.055,534,154686,97114
19604,8857.8814418,1671624087.055,533,154683,97130
19604,8857.8814418,1671624087.055,533,154683,97130
19605,8857.8946899,1671624087.055,534,154704,97107
19605,8857.8946899,1671624087.055,534,154704,97107
19606,8857.907938,1671624087.055,532,154796,97128
19606,8857.907938,1671624087.055,532,154796,97128
19607,8857.9211861,1671624087.055,533,154709,97110
19607,8857.9211861,1671624087.055,533,154709,97110
19608,8857.937839616667,1671624087.155,532,154689,97131
19608,8857.937839616667,1671624087.155,532,154689,97131
19609,8857.954493133333,1671624087.155,531,154832,97128
19609,8857.954493133333,1671624087.155,531,154832,97128
19610,8857.971146650001,1671624087.155,532,154760,97127
19610,8857.971146650001,1671624087.155,532,154760,97127
19611,8857.987800166668,1671624087.155,533,154798,97143
19611,8857.987800166668,1671624087.155,533,154798,97143
19612,8858.004453683334,1671624087.155,533,154817,97129
19612,8858.004453683334,1671624087.155,533,154817,97129
19613,8858.0211072,1671624087.155,535,154827,97147
19613,8858.0211072,1671624087.155,535,154827,97147
19614,8858.032835433334,1671624087.225,533,154847,97137
19614,8858.032835433334,1671624087.225,533,154847,97137
19615,8858.044563666666,1671624087.225,534,154954,97139
19615,8858.044563666666,1671624087.225,534,154954,97139
19616,8858.0562919,1671624087.225,532,154898,97157
19616,8858.0562919,1671624087.225,532,154898,97157
19617,8858.068020133334,1671624087.225,533,154889,97133
19617,8858.068020133334,1671624087.225,533,154889,97133
19618,8858.079748366667,1671624087.225,533,154855,97120
19618,8858.079748366667,1671624087.225,533,154855,97120
19619,8858.0914766,1671624087.225,533,154853,97122
19619,8858.0914766,1671624087.225,533,154853,97122
19620,8858.1078301,1671624087.323,534,154785,97094
19620,8858.1078301,1671624087.323,534,154785,97094
19621,8858.1241836,1671624087.323,533,154771,97100
19621,8858.1241836,1671624087.323,533,154771,97100
19622,8858.1405371,1671624087.323,533,154773,97092
19622,8858.1405371,1671624087.323,533,154773,97092
19623,8858.1568906,1671624087.323,533,154755,97052
19623,8858.1568906,1671624087.323,533,154755,97052
19624,8858.1732441,1671624087.323,532,154679,97042
19624,8858.1732441,1671624087.323,532,154679,97042
19625,8858.1895976,1671624087.323,533,154764,97038
19625,8858.1895976,1671624087.323,533,154764,97038
19626,8858.2047178,1671624087.414,532,154758,97046
19626,8858.2047178,1671624087.414,532,154758,97046
19627,8858.219837999999,1671624087.414,532,154749,97037
19627,8858.219837999999,1671624087.414,532,154749,97037
19628,8858.234958199999,1671624087.414,533,154659,97043
19628,8858.234958199999,1671624087.414,533,154659,97043
19629,8858.2500784,1671624087.414,533,154655,97056
19629,8858.2500784,1671624087.414,533,154655,97056
19630,8858.259365672588,1671624087.414,533,154693,97016
19630,8858.26648724947,1671624087.414,533,154693,97016
19631,8858.273608826352,1671624087.414,535,154760,97028
19631,8858.280730403234,1671624087.414,535,154760,97028
19632,8858.287851980116,1671624087.508,532,154625,97036
19632,8858.294973556998,1671624087.508,532,154625,97036
19633,8858.30209513388,1671624087.508,533,154675,97035
19633,8858.309216710762,1671624087.508,533,154675,97035
19634,8858.316338287645,1671624087.508,532,154745,96986
19634,8858.323459864527,1671624087.508,532,154745,96986
19635,8858.330581441409,1671624087.508,533,154676,97009
19635,8858.337703018291,1671624087.508,533,154676,97009
19636,8858.344824595173,1671624087.508,534,154701,97014
19636,8858.351946172055,1671624087.508,534,154701,97014
19637,8858.359067748937,1671624087.508,534,154722,97030
19637,8858.36618932582,1671624087.508,534,154722,97030
19638,8858.373310902702,1671624087.599,533,154731,97006
19638,8858.380432479584,1671624087.599,533,154731,97006
19639,8858.387554056466,1671624087.599,535,154662,96995
19639,8858.394675633348,1671624087.599,535,154662,96995
19640,8858.414442635756,1671624087.599,533,154751,96994
19640,8858.421641891226,1671624087.599,533,154751,96994
19641,8858.428841146695,1671624087.599,533,154706,97005
19641,8858.436040402165,1671624087.599,533,154706,97005
19642,8858.443239657634,1671624087.599,531,154720,96991
19642,8858.450438913103,1671624087.599,531,154720,96991
19643,8858.457638168573,1671624087.599,533,154785,97012
19643,8858.464837424042,1671624087.599,533,154785,97012
19644,8858.472036679512,1671624087.76,533,154744,96991
19644,8858.479235934981,1671624087.76,533,154744,96991
19645,8858.48643519045,1671624087.76,533,154726,97006
19645,8858.49363444592,1671624087.76,533,154726,97006
19646,8858.50083370139,1671624087.76,532,154786,97020
19646,8858.50803295686,1671624087.76,532,154786,97020
19647,8858.515232212329,1671624087.76,534,154825,96998
19647,8858.522431467798,1671624087.76,534,154825,96998
19648,8858.529630723267,1671624087.76,532,154817,97015
19648,8858.536829978737,1671624087.76,532,154817,97015
19649,8858.544029234206,1671624087.76,531,154862,97014
19649,8858.551228489676,1671624087.76,531,154862,97014
19650,8858.642264548114,1671624087.781,532,154895,97026
19650,8858.65472669928,1671624087.781,532,154895,97026
19651,8858.667188850446,1671624087.781,532,154886,97016
19651,8858.679651001612,1671624087.781,532,154886,97016
19652,8858.692113152778,1671624087.781,533,154941,97011
19652,8858.704575303944,1671624087.781,533,154941,97011
19653,8858.71703745511,1671624087.781,533,154879,96993
19653,8858.729499606276,1671624087.781,533,154879,96993
19654,8858.741961757441,1671624087.781,534,154901,97000
19654,8858.754423908607,1671624087.781,534,154901,97000
19655,8858.766886059773,1671624087.781,534,154884,96987
19655,8858.77934821094,1671624087.781,534,154884,96987
19656,8858.791810362105,1671624087.885,533,155028,97018
19656,8858.804272513271,1671624087.885,533,155028,97018
19657,8858.816734664437,1671624087.885,532,154940,96989
19657,8858.829196815603,1671624087.885,532,154940,96989
19658,8858.841658966769,1671624087.885,532,154983,97012
19658,8858.854121117934,1671624087.885,532,154983,97012
19659,8858.8665832691,1671624087.885,533,154929,96980
19659,8858.879045420266,1671624087.885,533,154929,96980
19660,8858.726720289722,1671624087.885,532,155029,97015
19660,8858.734457492981,1671624087.885,532,155029,97015
19661,8858.74219469624,1671624087.885,535,154960,97009
19661,8858.7499318995,1671624087.885,535,154960,97009
19662,8858.757669102759,1671624087.975,534,154974,96992
19662,8858.765406306018,1671624087.975,534,154974,96992
19663,8858.773143509277,1671624087.975,534,154912,97007
19663,8858.780880712537,1671624087.975,534,154912,97007
19664,8858.788617915796,1671624087.975,532,155003,97000
19664,8858.796355119055,1671624087.975,532,155003,97000
19665,8858.804092322314,1671624087.975,533,154952,96987
19665,8858.811829525574,1671624087.975,533,154952,96987
19666,8858.819566728833,1671624087.975,533,154977,96993
19666,8858.827303932092,1671624087.975,533,154977,96993
19667,8858.835041135351,1671624087.975,532,154937,96972
19667,8858.84277833861,1671624087.975,532,154937,96972
19668,8858.85051554187,1671624088.066,533,154946,96962
19668,8858.858252745129,1671624088.066,533,154946,96962
19669,8858.865989948388,1671624088.066,535,154878,96953
19669,8858.873727151647,1671624088.066,535,154878,96953
19670,8858.881139309686,1671624088.066,533,154939,96952
19670,8858.888187889592,1671624088.066,533,154939,96952
19671,8858.895236469498,1671624088.066,534,154819,96551
19671,8858.902285049404,1671624088.066,534,154819,96551
19672,8858.90933362931,1671624088.066,534,154928,95825
19672,8858.916382209216,1671624088.066,534,154928,95825
19673,8858.923430789122,1671624088.066,532,154874,95514
19673,8858.930479369028,1671624088.066,532,154874,95514
19674,8858.937527948934,1671624088.177,531,154903,95453
19674,8858.94457652884,1671624088.177,531,154903,95453
19675,8858.951625108746,1671624088.177,531,154856,95502
19675,8858.958673688652,1671624088.177,531,154856,95502
19676,8858.965722268558,1671624088.177,530,154890,95608
19676,8858.972770848464,1671624088.177,530,154890,95608
19677,8858.97981942837,1671624088.177,531,154900,95656
19677,8858.986868008276,1671624088.177,531,154900,95656
19678,8858.993916588182,1671624088.177,531,154924,95661
19678,8859.000965168088,1671624088.177,531,154924,95661
19679,8859.008013747994,1671624088.177,533,154850,95680
19679,8859.0150623279,1671624088.177,533,154850,95680
19680,8859.054848370304,1671624088.288,530,154903,95688
19680,8859.063540585346,1671624088.288,530,154903,95688
19681,8859.072232800389,1671624088.288,530,154816,95698
19681,8859.08092501543,1671624088.288,530,154816,95698
19682,8859.089617230473,1671624088.288,529,154923,95704
19682,8859.098309445515,1671624088.288,529,154923,95704
19683,8859.107001660557,1671624088.288,529,154849,95727
19683,8859.1156938756,1671624088.288,529,154849,95727
19684,8859.124386090642,1671624088.288,529,154853,95744
19684,8859.133078305684,1671624088.288,529,154853,95744
19685,8859.141770520726,1671624088.288,530,154789,95737
19685,8859.150462735768,1671624088.288,530,154789,95737
19686,8859.15915495081,1671624088.359,530,154845,95737
19686,8859.167847165852,1671624088.359,530,154845,95737
19687,8859.176539380895,1671624088.359,529,154852,95781
19687,8859.185231595937,1671624088.359,529,154852,95781
19688,8859.193923810979,1671624088.359,529,154815,95763
19688,8859.202616026021,1671624088.359,529,154815,95763
19689,8859.211308241063,1671624088.359,528,154853,95796
19689,8859.220000456105,1671624088.359,528,154853,95796
19690,8859.209454060641,1671624088.359,528,154729,95783
19690,8859.215209292875,1671624088.359,528,154729,95783
19691,8859.22096452511,1671624088.359,528,154772,95788
19691,8859.226719757344,1671624088.359,528,154772,95788
19692,8859.232474989578,1671624088.449,529,154735,95806
19692,8859.238230221812,1671624088.449,529,154735,95806
19693,8859.243985454046,1671624088.449,531,154758,95796
19693,8859.24974068628,1671624088.449,531,154758,95796
19694,8859.255495918514,1671624088.449,529,154841,95795
19694,8859.261251150749,1671624088.449,529,154841,95795
19695,8859.267006382983,1671624088.449,530,154809,95804
19695,8859.272761615217,1671624088.449,530,154809,95804
19696,8859.278516847451,1671624088.449,528,154833,95816
19696,8859.284272079685,1671624088.449,528,154833,95816
19697,8859.29002731192,1671624088.449,529,154826,95833
19697,8859.295782544154,1671624088.449,529,154826,95833
19698,8859.301537776388,1671624088.539,528,154829,95863
19698,8859.307293008622,1671624088.539,528,154829,95863
19699,8859.313048240856,1671624088.539,529,154841,95921
19699,8859.31880347309,1671624088.539,529,154841,95921
19700,8859.354864927156,1671624088.539,530,154854,96019
19700,8859.361911257169,1671624088.539,530,154854,96019
19701,8859.368957587181,1671624088.539,531,154882,96129
19701,8859.376003917194,1671624088.539,531,154882,96129
19702,8859.383050247206,1671624088.539,530,154848,96217
19702,8859.390096577219,1671624088.539,530,154848,96217
19703,8859.397142907232,1671624088.539,531,154764,96264
19703,8859.404189237244,1671624088.539,531,154764,96264
19704,8859.411235567257,1671624088.639,530,154918,96358
19704,8859.41828189727,1671624088.639,530,154918,96358
19705,8859.425328227282,1671624088.639,529,154885,96372
19705,8859.432374557295,1671624088.639,529,154885,96372
19706,8859.439420887307,1671624088.639,529,154929,96423
19706,8859.44646721732,1671624088.639,529,154929,96423
19707,8859.453513547332,1671624088.639,530,154972,96508
19707,8859.460559877345,1671624088.639,530,154972,96508
19708,8859.467606207358,1671624088.639,530,155022,96556
19708,8859.47465253737,1671624088.639,530,155022,96556
19709,8859.481698867383,1671624088.639,531,155032,96578
19709,8859.488745197395,1671624088.639,531,155032,96578
19710,8859.515509098492,1671624088.838,531,155060,96574
19710,8859.523275178613,1671624088.838,531,155060,96574
19711,8859.531041258735,1671624088.838,531,155111,96556
19711,8859.538807338857,1671624088.838,531,155111,96556
19712,8859.546573418978,1671624088.838,530,155188,96526
19712,8859.5543394991,1671624088.838,530,155188,96526
19713,8859.562105579222,1671624088.838,528,155192,96469
19713,8859.569871659343,1671624088.838,528,155192,96469
19714,8859.577637739465,1671624088.838,528,155122,96435
19714,8859.585403819587,1671624088.838,528,155122,96435
19715,8859.593169899708,1671624088.838,527,155105,96400
19715,8859.60093597983,1671624088.838,527,155105,96400
19716,8859.608702059952,1671624088.848,529,154989,96403
19716,8859.616468140073,1671624088.848,529,154989,96403
19717,8859.624234220195,1671624088.848,530,154980,96366
19717,8859.632000300317,1671624088.848,530,154980,96366
19718,8859.639766380438,1671624088.848,529,155001,96363
19718,8859.64753246056,1671624088.848,529,155001,96363
19719,8859.655298540682,1671624088.848,529,154937,96342
19719,8859.663064620803,1671624088.848,529,154937,96342
19720,8859.713933068424,1671624088.848,529,154992,96342
19720,8859.715602685865,1671624088.848,529,154992,96342
19721,8859.717272303305,1671624088.848,528,154926,96331
19721,8859.718941920746,1671624088.848,528,154926,96331
19722,8859.720611538187,1671624088.916,528,154920,96302
19722,8859.722281155628,1671624088.916,528,154920,96302
19723,8859.723950773068,1671624088.916,528,154925,96286
19723,8859.725620390509,1671624088.916,528,154925,96286
19724,8859.72729000795,1671624088.916,528,154904,96259
19724,8859.72895962539,1671624088.916,528,154904,96259
19725,8859.730629242831,1671624088.916,529,154923,96271
19725,8859.732298860272,1671624088.916,529,154923,96271
19726,8859.733968477713,1671624088.916,529,154851,96243
19726,8859.735638095153,1671624088.916,529,154851,96243
19727,8859.737307712594,1671624088.916,529,154851,96228
19727,8859.738977330035,1671624088.916,529,154851,96228
19728,8859.740646947475,1671624089.011,530,154901,96256
19728,8859.742316564916,1671624089.011,530,154901,96256
19729,8859.743986182357,1671624089.011,529,154927,96269
19729,8859.745655799798,1671624089.011,529,154927,96269
19730,8859.822387349896,1671624089.011,528,154882,96249
19730,8859.82921954401,1671624089.011,528,154882,96249
19731,8859.836051738124,1671624089.011,529,154910,96253
19731,8859.842883932239,1671624089.011,529,154910,96253
19732,8859.849716126353,1671624089.011,529,154878,96254
19732,8859.856548320467,1671624089.011,529,154878,96254
19733,8859.863380514582,1671624089.011,531,154933,96252
19733,8859.870212708696,1671624089.011,531,154933,96252
19734,8859.87704490281,1671624089.107,530,154927,96218
19734,8859.883877096925,1671624089.107,530,154927,96218
19735,8859.89070929104,1671624089.107,530,154981,96218
19735,8859.897541485154,1671624089.107,530,154981,96218
19736,8859.904373679268,1671624089.107,528,154939,96208
19736,8859.911205873383,1671624089.107,528,154939,96208
19737,8859.918038067497,1671624089.107,527,154916,96168
19737,8859.924870261611,1671624089.107,527,154916,96168
19738,8859.931702455726,1671624089.107,528,154977,96142
19738,8859.93853464984,1671624089.107,528,154977,96142
19739,8859.945366843955,1671624089.107,530,154917,96118
19739,8859.952199038069,1671624089.107,530,154917,96118
19740,8859.982854865597,1671624089.197,529,154945,96070
19740,8859.990299069836,1671624089.197,529,154945,96070
19741,8859.997743274074,1671624089.197,531,154934,96078
19741,8860.005187478313,1671624089.197,531,154934,96078
19742,8860.012631682552,1671624089.197,529,154935,96044
19742,8860.02007588679,1671624089.197,529,154935,96044
19743,8860.02752009103,1671624089.197,529,154932,96034
19743,8860.034964295268,1671624089.197,529,154932,96034
19744,8860.042408499507,1671624089.197,530,154980,96024
19744,8860.049852703745,1671624089.197,530,154980,96024
19745,8860.057296907984,1671624089.197,530,154918,96012
19745,8860.064741112223,1671624089.197,530,154918,96012
19746,8860.072185316461,1671624089.294,529,154896,96011
19746,8860.0796295207,1671624089.294,529,154896,96011
19747,8860.087073724939,1671624089.294,528,154955,96036
19747,8860.094517929178,1671624089.294,528,154955,96036
19748,8860.101962133416,1671624089.294,530,154858,96015
19748,8860.109406337655,1671624089.294,530,154858,96015
19749,8860.116850541894,1671624089.294,530,154905,96039
19749,8860.124294746132,1671624089.294,530,154905,96039
19750,8860.137210185938,1671624089.294,530,154969,96053
19750,8860.144717558942,1671624089.294,530,154969,96053
19751,8860.152224931946,1671624089.294,530,154947,96039
19751,8860.15973230495,1671624089.294,530,154947,96039
19752,8860.167239677954,1671624089.394,531,154977,96011
19752,8860.174747050958,1671624089.394,531,154977,96011
19753,8860.182254423962,1671624089.394,528,154933,95690
19753,8860.189761796966,1671624089.394,528,154933,95690
19754,8860.19726916997,1671624089.394,528,154940,95182
19754,8860.204776542974,1671624089.394,528,154940,95182
19755,8860.212283915978,1671624089.394,529,154893,94817
19755,8860.219791288982,1671624089.394,529,154893,94817
19756,8860.227298661986,1671624089.394,531,154816,94731
19756,8860.23480603499,1671624089.394,531,154816,94731
19757,8860.242313407995,1671624089.394,531,154736,94852
19757,8860.249820780999,1671624089.394,531,154736,94852
19758,8860.257328154003,1671624089.478,531,154691,95122
19758,8860.264835527007,1671624089.478,531,154691,95122
19759,8860.27234290001,1671624089.478,531,154613,95283
19759,8860.279850273015,1671624089.478,531,154613,95283
19760,8860.29699512057,1671624089.478,530,154679,95367
19760,8860.303923838925,1671624089.478,530,154679,95367
19761,8860.310852557279,1671624089.478,530,154618,95399
19761,8860.317781275633,1671624089.478,530,154618,95399
19762,8860.324709993987,1671624089.478,530,154624,95455
19762,8860.331638712341,1671624089.478,530,154624,95455
19763,8860.338567430696,1671624089.478,529,154587,95484
19763,8860.34549614905,1671624089.478,529,154587,95484
19764,8860.352424867404,1671624089.574,530,154594,95542
19764,8860.359353585758,1671624089.574,530,154594,95542
19765,8860.366282304112,1671624089.574,530,154593,95542
19765,8860.373211022466,1671624089.574,530,154593,95542
19766,8860.38013974082,1671624089.574,531,154601,95585
19766,8860.387068459175,1671624089.574,531,154601,95585
19767,8860.393997177529,1671624089.574,529,154655,95631
19767,8860.400925895883,1671624089.574,529,154655,95631
19768,8860.407854614237,1671624089.574,529,154578,95644
19768,8860.414783332591,1671624089.574,529,154578,95644
19769,8860.421712050946,1671624089.574,530,154599,95700
19769,8860.4286407693,1671624089.574,530,154599,95700
19770,8860.449797889656,1671624089.667,530,154619,95747
19770,8860.457316356653,1671624089.667,530,154619,95747
19771,8860.46483482365,1671624089.667,527,154623,95764
19771,8860.472353290646,1671624089.667,527,154623,95764
19772,8860.479871757643,1671624089.667,529,154690,95785
19772,8860.48739022464,1671624089.667,529,154690,95785
19773,8860.494908691637,1671624089.667,530,154677,95817
19773,8860.502427158634,1671624089.667,530,154677,95817
19774,8860.50994562563,1671624089.667,531,154639,95875
19774,8860.517464092627,1671624089.667,531,154639,95875
19775,8860.524982559624,1671624089.667,529,154689,95857
19775,8860.53250102662,1671624089.667,529,154689,95857
19776,8860.540019493617,1671624089.772,529,154711,95907
19776,8860.547537960614,1671624089.772,529,154711,95907
19777,8860.55505642761,1671624089.772,529,154693,95907
19777,8860.562574894608,1671624089.772,529,154693,95907
19778,8860.570093361604,1671624089.772,529,154612,95902
19778,8860.577611828601,1671624089.772,529,154612,95902
19779,8860.585130295598,1671624089.772,530,154727,95904
19779,8860.592648762595,1671624089.772,530,154727,95904
19780,8860.611804682774,1671624089.772,530,154701,95921
19780,8860.61979751004,1671624089.772,530,154701,95921
19781,8860.627790337307,1671624089.772,531,154680,95907
19781,8860.635783164573,1671624089.772,531,154680,95907
19782,8860.643775991839,1671624089.863,529,154679,95929
19782,8860.651768819105,1671624089.863,529,154679,95929
19783,8860.659761646371,1671624089.863,529,154743,95909
19783,8860.667754473638,1671624089.863,529,154743,95909
19784,8860.675747300904,1671624089.863,529,154629,95944
19784,8860.68374012817,1671624089.863,529,154629,95944
19785,8860.691732955436,1671624089.863,529,154710,95939
19785,8860.699725782702,1671624089.863,529,154710,95939
19786,8860.707718609969,1671624089.863,528,154705,95945
19786,8860.715711437235,1671624089.863,528,154705,95945
19787,8860.723704264501,1671624089.863,528,154705,95955
19787,8860.731697091767,1671624089.863,528,154705,95955
19788,8860.739689919033,1671624089.946,529,154751,95953
19788,8860.7476827463,1671624089.946,529,154751,95953
19789,8860.755675573566,1671624089.946,528,154744,95987
19789,8860.763668400832,1671624089.946,528,154744,95987
19790,8860.765521157586,1671624089.946,532,154706,95985
19790,8860.772210463201,1671624089.946,532,154706,95985
19791,8860.778899768817,1671624089.946,529,154772,95996
19791,8860.785589074432,1671624089.946,529,154772,95996
19792,8860.792278380048,1671624089.946,529,154760,96032
19792,8860.798967685663,1671624089.946,529,154760,96032
19793,8860.805656991279,1671624089.946,530,154818,96053
19793,8860.812346296894,1671624089.946,530,154818,96053
19794,8860.81903560251,1671624090.041,529,154800,96055
19794,8860.825724908125,1671624090.041,529,154800,96055
19795,8860.83241421374,1671624090.041,528,154714,96072
19795,8860.839103519356,1671624090.041,528,154714,96072
19796,8860.845792824972,1671624090.041,529,154781,96086
19796,8860.852482130587,1671624090.041,529,154781,96086
19797,8860.859171436203,1671624090.041,532,154789,96107
19797,8860.865860741818,1671624090.041,532,154789,96107
19798,8860.872550047434,1671624090.041,530,154782,96105
19798,8860.87923935305,1671624090.041,530,154782,96105
19799,8860.885928658665,1671624090.041,529,154825,96155
19799,8860.89261796428,1671624090.041,529,154825,96155
19800,8860.91671345133,1671624090.152,529,154886,96183
19800,8860.924164338061,1671624090.152,529,154886,96183
19801,8860.931615224792,1671624090.152,529,154796,96164
19801,8860.939066111523,1671624090.152,529,154796,96164
19802,8860.946516998254,1671624090.152,527,154878,96202
19802,8860.953967884985,1671624090.152,527,154878,96202
19803,8860.961418771716,1671624090.152,529,154794,96226
19803,8860.968869658447,1671624090.152,529,154794,96226
19804,8860.976320545178,1671624090.152,529,154894,96245
19804,8860.98377143191,1671624090.152,529,154894,96245
19805,8860.99122231864,1671624090.152,529,154828,96229
19805,8860.998673205371,1671624090.152,529,154828,96229
19806,8861.006124092102,1671624090.231,530,154787,96254
19806,8861.013574978833,1671624090.231,530,154787,96254
19807,8861.021025865564,1671624090.231,529,154876,96251
19807,8861.028476752295,1671624090.231,529,154876,96251
19808,8861.035927639026,1671624090.231,530,154809,96259
19808,8861.043378525757,1671624090.231,530,154809,96259
19809,8861.050829412488,1671624090.231,530,154830,96271
19809,8861.05828029922,1671624090.231,530,154830,96271
19810,8861.079147667568,1671624090.231,528,154811,96251
19810,8861.085512728558,1671624090.231,528,154811,96251
19811,8861.091877789548,1671624090.231,529,154812,96274
19811,8861.098242850538,1671624090.231,529,154812,96274
19812,8861.104607911528,1671624090.334,528,154734,96277
19812,8861.110972972518,1671624090.334,528,154734,96277
19813,8861.117338033508,1671624090.334,530,154768,96308
19813,8861.123703094498,1671624090.334,530,154768,96308
19814,8861.130068155488,1671624090.334,530,154856,96288
19814,8861.136433216478,1671624090.334,530,154856,96288
19815,8861.142798277468,1671624090.334,531,154884,96275
19815,8861.149163338458,1671624090.334,531,154884,96275
19816,8861.155528399448,1671624090.334,530,154811,96248
19816,8861.161893460438,1671624090.334,530,154811,96248
19817,8861.168258521428,1671624090.334,529,154936,96293
19817,8861.174623582418,1671624090.334,529,154936,96293
19818,8861.180988643408,1671624090.415,529,154828,96261
19818,8861.187353704398,1671624090.415,529,154828,96261
19819,8861.193718765388,1671624090.415,529,154905,96247
19819,8861.200083826378,1671624090.415,529,154905,96247
19820,8861.235911487132,1671624090.415,529,154902,96260
19820,8861.242748445096,1671624090.415,529,154902,96260
19821,8861.24958540306,1671624090.415,531,154871,96267
19821,8861.256422361024,1671624090.415,531,154871,96267
19822,8861.263259318988,1671624090.415,530,154979,96264
19822,8861.270096276952,1671624090.415,530,154979,96264
19823,8861.276933234916,1671624090.415,530,154931,96260
19823,8861.28377019288,1671624090.415,530,154931,96260
19824,8861.290607150844,1671624090.516,529,154929,96256
19824,8861.297444108808,1671624090.516,529,154929,96256
19825,8861.304281066772,1671624090.516,530,154937,96280
19825,8861.311118024736,1671624090.516,530,154937,96280
19826,8861.3179549827,1671624090.516,529,154898,96255
19826,8861.324791940664,1671624090.516,529,154898,96255
19827,8861.331628898628,1671624090.516,528,154997,96289
19827,8861.338465856592,1671624090.516,528,154997,96289
19828,8861.345302814556,1671624090.516,529,154915,96265
19828,8861.35213977252,1671624090.516,529,154915,96265
19829,8861.358976730484,1671624090.516,529,154850,96250
19829,8861.365813688448,1671624090.516,529,154850,96250
19830,8861.392375151598,1671624090.608,531,154971,96257
19830,8861.400264080976,1671624090.608,531,154971,96257
19831,8861.408153010354,1671624090.608,531,154925,96283
19831,8861.416041939732,1671624090.608,531,154925,96283
19832,8861.42393086911,1671624090.608,530,154836,96269
19832,8861.431819798489,1671624090.608,530,154836,96269
19833,8861.439708727867,1671624090.608,529,154959,96257
19833,8861.447597657245,1671624090.608,529,154959,96257
19834,8861.455486586623,1671624090.608,529,154897,96294
19834,8861.463375516001,1671624090.608,529,154897,96294
19835,8861.47126444538,1671624090.608,531,154972,96267
19835,8861.479153374758,1671624090.608,531,154972,96267
19836,8861.487042304136,1671624090.7,529,154939,96262
19836,8861.494931233514,1671624090.7,529,154939,96262
19837,8861.502820162892,1671624090.7,530,155056,96311
19837,8861.51070909227,1671624090.7,530,155056,96311
19838,8861.518598021648,1671624090.7,531,154987,96295
19838,8861.526486951027,1671624090.7,531,154987,96295
19839,8861.534375880405,1671624090.7,531,155025,96309
19839,8861.542264809783,1671624090.7,531,155025,96309
19840,8861.544457946904,1671624090.7,530,154906,96323
19840,8861.551667304906,1671624090.7,530,154906,96323
19841,8861.558876662908,1671624090.7,528,155003,96333
19841,8861.56608602091,1671624090.7,528,155003,96333
19842,8861.573295378912,1671624090.806,531,154963,96310
19842,8861.580504736914,1671624090.806,531,154963,96310
19843,8861.587714094916,1671624090.806,530,155046,96339
19843,8861.594923452918,1671624090.806,530,155046,96339
19844,8861.60213281092,1671624090.806,530,155057,96340
19844,8861.609342168922,1671624090.806,530,155057,96340
19845,8861.616551526924,1671624090.806,531,155004,96333
19845,8861.623760884926,1671624090.806,531,155004,96333
19846,8861.630970242928,1671624090.806,531,155059,96346
19846,8861.63817960093,1671624090.806,531,155059,96346
19847,8861.645388958932,1671624090.806,530,155081,96362
19847,8861.652598316934,1671624090.806,530,155081,96362
19848,8861.659807674936,1671624090.891,530,155042,96317
19848,8861.667017032938,1671624090.891,530,155042,96317
19849,8861.67422639094,1671624090.891,531,155059,96331
19849,8861.681435748942,1671624090.891,531,155059,96331
19850,8861.709869845767,1671624090.891,530,154999,96339
19850,8861.717029258494,1671624090.891,530,154999,96339
19851,8861.724188671222,1671624090.891,529,154933,96341
19851,8861.73134808395,1671624090.891,529,154933,96341
19852,8861.738507496677,1671624090.891,529,154989,96322
19852,8861.745666909404,1671624090.891,529,154989,96322
19853,8861.752826322132,1671624090.891,531,154967,96308
19853,8861.75998573486,1671624090.891,531,154967,96308
19854,8861.767145147587,1671624090.989,529,154954,96300
19854,8861.774304560315,1671624090.989,529,154954,96300
19855,8861.781463973042,1671624090.989,530,154924,96307
19855,8861.78862338577,1671624090.989,530,154924,96307
19856,8861.795782798497,1671624090.989,531,154941,96290
19856,8861.802942211225,1671624090.989,531,154941,96290
19857,8861.810101623953,1671624090.989,530,154890,96283
19857,8861.81726103668,1671624090.989,530,154890,96283
19858,8861.824420449408,1671624090.989,528,154905,96278
19858,8861.831579862135,1671624090.989,528,154905,96278
19859,8861.838739274863,1671624090.989,529,154877,96298
19859,8861.84589868759,1671624090.989,529,154877,96298
19860,8861.864393274805,1671624091.07,531,154951,96283
19860,8861.8719731581,1671624091.07,531,154951,96283
19861,8861.879553041395,1671624091.07,530,154874,96273
19861,8861.88713292469,1671624091.07,530,154874,96273
19862,8861.894712807985,1671624091.07,529,154896,96265
19862,8861.90229269128,1671624091.07,529,154896,96265
19863,8861.909872574575,1671624091.07,530,154917,96289
19863,8861.91745245787,1671624091.07,530,154917,96289
19864,8861.925032341165,1671624091.07,529,154937,96294
19864,8861.93261222446,1671624091.07,529,154937,96294
19865,8861.940192107755,1671624091.07,529,154951,96293
19865,8861.94777199105,1671624091.07,529,154951,96293
19866,8861.955351874345,1671624091.168,530,154911,96268
19866,8861.96293175764,1671624091.168,530,154911,96268
19867,8861.970511640935,1671624091.168,529,154895,96274
19867,8861.97809152423,1671624091.168,529,154895,96274
19868,8861.985671407525,1671624091.168,528,154959,96284
19868,8861.99325129082,1671624091.168,528,154959,96284
19869,8862.000831174115,1671624091.168,528,154949,96265
19869,8862.00841105741,1671624091.168,528,154949,96265
19870,8862.011066692852,1671624091.168,530,154940,96288
19870,8862.018639077389,1671624091.168,530,154940,96288
19871,8862.026211461925,1671624091.168,529,154995,96267
19871,8862.033783846462,1671624091.168,529,154995,96267
19872,8862.041356230999,1671624091.266,530,154984,96272
19872,8862.048928615535,1671624091.266,530,154984,96272
19873,8862.056501000072,1671624091.266,528,154939,96256
19873,8862.064073384608,1671624091.266,528,154939,96256
19874,8862.071645769145,1671624091.266,528,154928,96257
19874,8862.079218153682,1671624091.266,528,154928,96257
19875,8862.086790538218,1671624091.266,529,154975,96269
19875,8862.094362922755,1671624091.266,529,154975,96269
19876,8862.101935307292,1671624091.266,531,154949,96278
19876,8862.109507691828,1671624091.266,531,154949,96278
19877,8862.117080076365,1671624091.266,530,154990,96287
19877,8862.124652460901,1671624091.266,530,154990,96287
19878,8862.132224845438,1671624091.36,532,154989,96273
19878,8862.139797229975,1671624091.36,532,154989,96273
19879,8862.147369614511,1671624091.36,530,154996,96273
19879,8862.154941999048,1671624091.36,530,154996,96273
19880,8862.173030046393,1671624091.36,531,155025,96292
19880,8862.180455554913,1671624091.36,531,155025,96292
19881,8862.187881063433,1671624091.36,530,155044,96296
19881,8862.195306571954,1671624091.36,530,155044,96296
19882,8862.202732080474,1671624091.36,528,155072,96310
19882,8862.210157588994,1671624091.36,528,155072,96310
19883,8862.217583097514,1671624091.36,530,155008,96270
19883,8862.225008606034,1671624091.36,530,155008,96270
19884,8862.232434114554,1671624091.446,530,155028,96308
19884,8862.239859623074,1671624091.446,530,155028,96308
19885,8862.247285131594,1671624091.446,530,155057,96315
19885,8862.254710640114,1671624091.446,530,155057,96315
19886,8862.262136148634,1671624091.446,530,155107,96311
19886,8862.269561657155,1671624091.446,530,155107,96311
19887,8862.276987165675,1671624091.446,529,155061,96335
19887,8862.284412674195,1671624091.446,529,155061,96335
19888,8862.291838182715,1671624091.446,530,155039,96340
19888,8862.299263691235,1671624091.446,530,155039,96340
19889,8862.306689199755,1671624091.446,530,155019,96326
19889,8862.314114708275,1671624091.446,530,155019,96326
19890,8862.3207838783,1671624091.54,531,155070,96310
19890,8862.327524838987,1671624091.54,531,155070,96310
19891,8862.334265799675,1671624091.54,530,155116,96305
19891,8862.341006760362,1671624091.54,530,155116,96305
19892,8862.347747721049,1671624091.54,529,155049,96308
19892,8862.354488681736,1671624091.54,529,155049,96308
19893,8862.361229642423,1671624091.54,530,155054,96308
19893,8862.36797060311,1671624091.54,530,155054,96308
19894,8862.374711563798,1671624091.54,532,154905,96294
19894,8862.381452524485,1671624091.54,532,154905,96294
19895,8862.388193485172,1671624091.54,530,154920,96287
19895,8862.39493444586,1671624091.54,530,154920,96287
19896,8862.401675406547,1671624091.641,529,154984,96292
19896,8862.408416367234,1671624091.641,529,154984,96292
19897,8862.415157327921,1671624091.641,529,154964,96271
19897,8862.421898288609,1671624091.641,529,154964,96271
19898,8862.428639249296,1671624091.641,529,154913,96279
19898,8862.435380209983,1671624091.641,529,154913,96279
19899,8862.44212117067,1671624091.641,529,154879,96274
19899,8862.448862131358,1671624091.641,529,154879,96274
19900,8862.483743228178,1671624091.641,529,154887,96257
19900,8862.491613247867,1671624091.641,529,154887,96257
19901,8862.499483267555,1671624091.641,528,154961,96248
19901,8862.507353287243,1671624091.641,528,154961,96248
19902,8862.515223306931,1671624091.738,530,154913,96264
19902,8862.52309332662,1671624091.738,530,154913,96264
19903,8862.530963346308,1671624091.738,528,154849,96245
19903,8862.538833365996,1671624091.738,528,154849,96245
19904,8862.546703385684,1671624091.738,530,154875,96240
19904,8862.554573405372,1671624091.738,530,154875,96240
19905,8862.56244342506,1671624091.738,528,154882,96262
19905,8862.570313444749,1671624091.738,528,154882,96262
19906,8862.578183464437,1671624091.738,528,154917,96226
19906,8862.586053484125,1671624091.738,528,154917,96226
19907,8862.593923503813,1671624091.738,529,154902,96253
19907,8862.601793523501,1671624091.738,529,154902,96253
19908,8862.60966354319,1671624091.82,530,154867,96238
19908,8862.617533562878,1671624091.82,530,154867,96238
19909,8862.625403582566,1671624091.82,530,154818,96240
19909,8862.633273602254,1671624091.82,530,154818,96240
19910,8862.640203359048,1671624091.82,531,154902,96239
19910,8862.646986456872,1671624091.82,531,154902,96239
19911,8862.653769554696,1671624091.82,530,154887,96239
19911,8862.66055265252,1671624091.82,530,154887,96239
19912,8862.667335750344,1671624091.82,530,154909,96226
19912,8862.674118848168,1671624091.82,530,154909,96226
19913,8862.680901945992,1671624091.82,528,154819,96210
19913,8862.687685043817,1671624091.82,528,154819,96210
19914,8862.69446814164,1671624091.915,529,154904,96248
19914,8862.701251239465,1671624091.915,529,154904,96248
19915,8862.708034337289,1671624091.915,528,154878,96200
19915,8862.714817435113,1671624091.915,528,154878,96200
19916,8862.721600532937,1671624091.915,528,154860,96201
19916,8862.728383630762,1671624091.915,528,154860,96201
19917,8862.735166728586,1671624091.915,528,154831,96212
19917,8862.74194982641,1671624091.915,528,154831,96212
19918,8862.748732924234,1671624091.915,529,154878,96232
19918,8862.755516022058,1671624091.915,529,154878,96232
19919,8862.762299119882,1671624091.915,530,154866,96205
19919,8862.769082217706,1671624091.915,530,154866,96205
19920,8862.79079465388,1671624092.074,529,154897,96189
19920,8862.79819032707,1671624092.074,529,154897,96189
19921,8862.80558600026,1671624092.074,528,154925,96205
19921,8862.81298167345,1671624092.074,528,154925,96205
19922,8862.820377346641,1671624092.074,528,154922,96210
19922,8862.827773019832,1671624092.074,528,154922,96210
19923,8862.835168693022,1671624092.074,528,154865,96184
19923,8862.842564366212,1671624092.074,528,154865,96184
19924,8862.849960039403,1671624092.074,529,154910,96203
19924,8862.857355712593,1671624092.074,529,154910,96203
19925,8862.864751385783,1671624092.074,529,154941,96206
19925,8862.872147058973,1671624092.074,529,154941,96206
19926,8862.879542732164,1671624092.147,531,154921,96194
19926,8862.886938405354,1671624092.147,531,154921,96194
19927,8862.894334078544,1671624092.147,529,154956,96210
19927,8862.901729751735,1671624092.147,529,154956,96210
19928,8862.909125424925,1671624092.147,530,154887,96166
19928,8862.916521098115,1671624092.147,530,154887,96166
19929,8862.923916771306,1671624092.147,529,154976,96150
19929,8862.931312444496,1671624092.147,529,154976,96150
19930,8862.996777955006,1671624092.147,530,154920,96154
19930,8863.002907269782,1671624092.147,530,154920,96154
19931,8863.009036584557,1671624092.147,528,154973,96146
19931,8863.015165899333,1671624092.147,528,154973,96146
19932,8863.021295214108,1671624092.201,530,154879,96120
19932,8863.027424528884,1671624092.201,530,154879,96120
19933,8863.03355384366,1671624092.201,531,154908,96106
19933,8863.039683158435,1671624092.201,531,154908,96106
19934,8863.04581247321,1671624092.201,531,154906,96101
19934,8863.051941787986,1671624092.201,531,154906,96101
19935,8863.058071102761,1671624092.201,530,154904,96089
19935,8863.064200417537,1671624092.201,530,154904,96089
19936,8863.070329732313,1671624092.201,529,154858,96063
19936,8863.076459047088,1671624092.201,529,154858,96063
19937,8863.082588361864,1671624092.201,530,154811,96043
19937,8863.08871767664,1671624092.201,530,154811,96043
19938,8863.094846991415,1671624092.292,530,154751,96014
19938,8863.10097630619,1671624092.292,530,154751,96014
19939,8863.107105620966,1671624092.292,528,154705,95994
19939,8863.113234935741,1671624092.292,528,154705,95994
19940,8863.105127681918,1671624092.292,530,154746,95967
19940,8863.111407186054,1671624092.292,530,154746,95967
19941,8863.11768669019,1671624092.292,530,154687,95964
19941,8863.123966194325,1671624092.292,530,154687,95964
19942,8863.130245698461,1671624092.292,531,154638,95945
19942,8863.136525202597,1671624092.292,531,154638,95945
19943,8863.142804706733,1671624092.292,529,154700,95943
19943,8863.149084210869,1671624092.292,529,154700,95943
19944,8863.155363715005,1671624092.386,530,154732,95944
19944,8863.16164321914,1671624092.386,530,154732,95944
19945,8863.167922723276,1671624092.386,528,154681,95931
19945,8863.174202227412,1671624092.386,528,154681,95931
19946,8863.180481731548,1671624092.386,529,154705,95943
19946,8863.186761235684,1671624092.386,529,154705,95943
19947,8863.19304073982,1671624092.386,529,154646,95932
19947,8863.199320243955,1671624092.386,529,154646,95932
19948,8863.205599748091,1671624092.386,530,154666,95926
19948,8863.211879252227,1671624092.386,530,154666,95926
19949,8863.218158756363,1671624092.386,531,154624,95909
19949,8863.224438260499,1671624092.386,531,154624,95909
19950,8863.261421686222,1671624092.498,531,154596,95893
19950,8863.268725012143,1671624092.498,531,154596,95893
19951,8863.276028338065,1671624092.498,529,154569,95910
19951,8863.283331663986,1671624092.498,529,154569,95910
19952,8863.290634989908,1671624092.498,530,154559,95903
19952,8863.297938315829,1671624092.498,530,154559,95903
19953,8863.30524164175,1671624092.498,528,154643,95898
19953,8863.312544967672,1671624092.498,528,154643,95898
19954,8863.319848293593,1671624092.498,530,154583,95886
19954,8863.327151619515,1671624092.498,530,154583,95886
19955,8863.334454945436,1671624092.498,528,154611,95898
19955,8863.341758271357,1671624092.498,528,154611,95898
19956,8863.349061597279,1671624092.588,529,154601,95875
19956,8863.3563649232,1671624092.588,529,154601,95875
19957,8863.363668249121,1671624092.588,530,154630,95886
19957,8863.370971575043,1671624092.588,530,154630,95886
19958,8863.378274900964,1671624092.588,532,154589,95886
19958,8863.385578226886,1671624092.588,532,154589,95886
19959,8863.392881552807,1671624092.588,530,154548,95882
19959,8863.400184878728,1671624092.588,530,154548,95882
19960,8863.43338217875,1671624092.588,528,154589,95838
19960,8863.44048002215,1671624092.588,528,154589,95838
19961,8863.447577865549,1671624092.588,529,154548,95859
19961,8863.454675708948,1671624092.588,529,154548,95859
19962,8863.461773552348,1671624092.662,529,154572,95873
19962,8863.468871395748,1671624092.662,529,154572,95873
19963,8863.475969239147,1671624092.662,529,154588,95870
19963,8863.483067082547,1671624092.662,529,154588,95870
19964,8863.490164925946,1671624092.662,530,154569,95840
19964,8863.497262769346,1671624092.662,530,154569,95840
19965,8863.504360612746,1671624092.662,531,154587,95857
19965,8863.511458456145,1671624092.662,531,154587,95857
19966,8863.518556299545,1671624092.662,530,154559,95840
19966,8863.525654142944,1671624092.662,530,154559,95840
19967,8863.532751986344,1671624092.662,531,154608,95859
19967,8863.539849829744,1671624092.662,531,154608,95859
19968,8863.546947673143,1671624092.77,530,154652,95851
19968,8863.554045516543,1671624092.77,530,154652,95851
19969,8863.561143359942,1671624092.77,528,154611,95853
19969,8863.568241203342,1671624092.77,528,154611,95853
19970,8863.573379126248,1671624092.77,528,154570,95816
19970,8863.581006714423,1671624092.77,528,154570,95816
19971,8863.588634302598,1671624092.77,528,154588,95832
19971,8863.596261890772,1671624092.77,528,154588,95832
19972,8863.603889478947,1671624092.77,528,154571,95845
19972,8863.611517067122,1671624092.77,528,154571,95845
19973,8863.619144655297,1671624092.77,529,154602,95856
19973,8863.626772243471,1671624092.77,529,154602,95856
19974,8863.634399831646,1671624092.854,532,154593,95813
19974,8863.64202741982,1671624092.854,532,154593,95813
19975,8863.649655007996,1671624092.854,531,154557,95818
19975,8863.65728259617,1671624092.854,531,154557,95818
19976,8863.664910184345,1671624092.854,530,154599,95825
19976,8863.67253777252,1671624092.854,530,154599,95825
19977,8863.680165360694,1671624092.854,530,154657,95812
19977,8863.68779294887,1671624092.854,530,154657,95812
19978,8863.695420537044,1671624092.854,530,154619,95809
19978,8863.703048125219,1671624092.854,530,154619,95809
19979,8863.710675713393,1671624092.854,530,154640,95812
19979,8863.718303301568,1671624092.854,530,154640,95812
19980,8863.729190281614,1671624092.947,530,154611,95798
19980,8863.735845678253,1671624092.947,530,154611,95798
19981,8863.742501074892,1671624092.947,531,154525,95771
19981,8863.749156471531,1671624092.947,531,154525,95771
19982,8863.75581186817,1671624092.947,532,154558,95771
19982,8863.762467264809,1671624092.947,532,154558,95771
19983,8863.769122661448,1671624092.947,529,154539,95753
19983,8863.775778058087,1671624092.947,529,154539,95753
19984,8863.782433454726,1671624092.947,530,154480,95755
19984,8863.789088851365,1671624092.947,530,154480,95755
19985,8863.795744248004,1671624092.947,529,154468,95736
19985,8863.802399644643,1671624092.947,529,154468,95736
19986,8863.809055041282,1671624093.04,528,154511,95760
19986,8863.81571043792,1671624093.04,528,154511,95760
19987,8863.82236583456,1671624093.04,528,154450,95712
19987,8863.829021231199,1671624093.04,528,154450,95712
19988,8863.835676627838,1671624093.04,528,154451,95713
19988,8863.842332024476,1671624093.04,528,154451,95713
19989,8863.848987421115,1671624093.04,529,154406,95697
19989,8863.855642817754,1671624093.04,529,154406,95697
19990,8863.884810462616,1671624093.04,529,154342,95702
19990,8863.892079975798,1671624093.04,529,154342,95702
19991,8863.89934948898,1671624093.04,531,154509,95699
19991,8863.906619002162,1671624093.04,531,154509,95699
19992,8863.913888515344,1671624093.14,530,154360,95685
19992,8863.921158028526,1671624093.14,530,154360,95685
19993,8863.928427541709,1671624093.14,528,154271,95670
19993,8863.93569705489,1671624093.14,528,154271,95670
19994,8863.942966568073,1671624093.14,528,154394,95688
19994,8863.950236081255,1671624093.14,528,154394,95688
19995,8863.957505594437,1671624093.14,528,154339,95677
19995,8863.964775107619,1671624093.14,528,154339,95677
19996,8863.972044620801,1671624093.14,529,154330,95671
19996,8863.979314133983,1671624093.14,529,154330,95671
19997,8863.986583647165,1671624093.14,529,154354,95667
19997,8863.993853160347,1671624093.14,529,154354,95667
19998,8864.00112267353,1671624093.232,530,154353,95655
19998,8864.008392186712,1671624093.232,530,154353,95655
19999,8864.015661699894,1671624093.232,530,154340,95639
19999,8864.022931213076,1671624093.232,530,154340,95639
20000,8864.046030189671,1671624093.232,530,154290,95633
20000,8864.053399082759,1671624093.232,530,154290,95633
20001,8864.060767975847,1671624093.232,530,154287,95631
20001,8864.068136868935,1671624093.232,530,154287,95631
20002,8864.075505762023,1671624093.232,530,154292,95617
20002,8864.08287465511,1671624093.232,530,154292,95617
20003,8864.090243548198,1671624093.232,530,154313,95627
20003,8864.097612441286,1671624093.232,530,154313,95627
20004,8864.104981334374,1671624093.344,529,154297,95604
20004,8864.112350227462,1671624093.344,529,154297,95604
20005,8864.11971912055,1671624093.344,529,154266,95619
20005,8864.127088013638,1671624093.344,529,154266,95619
20006,8864.134456906726,1671624093.344,532,154314,95610
20006,8864.141825799814,1671624093.344,532,154314,95610
20007,8864.149194692902,1671624093.344,530,154292,95609
20007,8864.15656358599,1671624093.344,530,154292,95609
20008,8864.163932479078,1671624093.344,530,154244,95598
20008,8864.171301372166,1671624093.344,530,154244,95598
20009,8864.178670265253,1671624093.344,529,154236,95585
20009,8864.186039158341,1671624093.344,529,154236,95585
20010,8864.221545552726,1671624093.413,528,154258,95593
20010,8864.230302869006,1671624093.413,528,154258,95593
20011,8864.239060185286,1671624093.413,528,154207,95580
20011,8864.247817501566,1671624093.413,528,154207,95580
20012,8864.256574817846,1671624093.413,529,154252,95589
20012,8864.265332134126,1671624093.413,529,154252,95589
20013,8864.274089450406,1671624093.413,529,154291,95594
20013,8864.282846766686,1671624093.413,529,154291,95594
20014,8864.291604082966,1671624093.413,531,154275,95581
20014,8864.300361399246,1671624093.413,531,154275,95581
20015,8864.309118715526,1671624093.413,530,154246,95601
20015,8864.317876031806,1671624093.413,530,154246,95601
20016,8864.326633348086,1671624093.515,531,154312,95579
20016,8864.335390664366,1671624093.515,531,154312,95579
20017,8864.344147980646,1671624093.515,528,154315,95579
20017,8864.352905296926,1671624093.515,528,154315,95579
20018,8864.361662613206,1671624093.515,529,154244,95584
20018,8864.370419929486,1671624093.515,529,154244,95584
20019,8864.379177245766,1671624093.515,528,154341,95578
20019,8864.387934562046,1671624093.515,528,154341,95578
20020,8864.356999571633,1671624093.515,529,154325,95577
20020,8864.364818107428,1671624093.515,529,154325,95577
20021,8864.372636643222,1671624093.515,530,154287,95558
20021,8864.380455179016,1671624093.515,530,154287,95558
20022,8864.38827371481,1671624093.608,530,154324,95580
20022,8864.396092250605,1671624093.608,530,154324,95580
20023,8864.4039107864,1671624093.608,530,154355,95563
20023,8864.411729322193,1671624093.608,530,154355,95563
20024,8864.419547857988,1671624093.608,531,154323,95566
20024,8864.427366393782,1671624093.608,531,154323,95566
20025,8864.435184929576,1671624093.608,529,154298,95559
20025,8864.44300346537,1671624093.608,529,154298,95559
20026,8864.450822001165,1671624093.608,528,154400,95563
20026,8864.45864053696,1671624093.608,528,154400,95563
20027,8864.466459072753,1671624093.608,528,154332,95552
20027,8864.474277608548,1671624093.608,528,154332,95552
20028,8864.482096144342,1671624093.697,527,154312,95526
20028,8864.489914680136,1671624093.697,527,154312,95526
20029,8864.49773321593,1671624093.697,529,154269,95537
20029,8864.505551751725,1671624093.697,529,154269,95537
20030,8864.512733232608,1671624093.697,531,154232,95503
20030,8864.519788904869,1671624093.697,531,154232,95503
20031,8864.526844577129,1671624093.697,529,154236,95502
20031,8864.53390024939,1671624093.697,529,154236,95502
20032,8864.54095592165,1671624093.697,531,154181,95467
20032,8864.54801159391,1671624093.697,531,154181,95467
20033,8864.55506726617,1671624093.697,529,154162,95470
20033,8864.56212293843,1671624093.697,529,154162,95470
20034,8864.56917861069,1671624093.794,529,154145,95444
20034,8864.576234282951,1671624093.794,529,154145,95444
20035,8864.583289955212,1671624093.794,528,154146,95422
20035,8864.590345627472,1671624093.794,528,154146,95422
20036,8864.597401299732,1671624093.794,530,154083,95433
20036,8864.604456971992,1671624093.794,530,154083,95433
20037,8864.611512644253,1671624093.794,530,154078,95434
20037,8864.618568316513,1671624093.794,530,154078,95434
20038,8864.625623988773,1671624093.794,531,154097,95416
20038,8864.632679661034,1671624093.794,531,154097,95416
20039,8864.639735333294,1671624093.794,529,154046,95397
20039,8864.646791005554,1671624093.794,529,154046,95397
20040,8864.669390207877,1671624093.975,530,154031,95406
20040,8864.676929616691,1671624093.975,530,154031,95406
20041,8864.684469025506,1671624093.975,529,154060,95378
20041,8864.69200843432,1671624093.975,529,154060,95378
20042,8864.699547843134,1671624093.975,529,154009,95408
20042,8864.707087251949,1671624093.975,529,154009,95408
20043,8864.714626660763,1671624093.975,528,154046,95417
20043,8864.722166069578,1671624093.975,528,154046,95417
20044,8864.729705478392,1671624093.975,529,154024,95379
20044,8864.737244887207,1671624093.975,529,154024,95379
20045,8864.744784296021,1671624093.975,529,154011,95381
20045,8864.752323704835,1671624093.975,529,154011,95381
20046,8864.75986311365,1671624093.995,531,154076,95374
20046,8864.767402522464,1671624093.995,531,154076,95374
20047,8864.774941931279,1671624093.995,529,153966,95354
20047,8864.782481340093,1671624093.995,529,153966,95354
20048,8864.790020748907,1671624093.995,527,154058,95330
20048,8864.797560157722,1671624093.995,527,154058,95330
20049,8864.805099566536,1671624093.995,528,154048,95322
20049,8864.81263897535,1671624093.995,528,154048,95322
20050,8864.857810082729,1671624093.995,527,154059,95268
20050,8864.860098657527,1671624093.995,527,154059,95268
20051,8864.862387232326,1671624093.995,527,154083,95262
20051,8864.864675807125,1671624093.995,527,154083,95262
20052,8864.866964381923,1671624094.072,527,154067,95231
20052,8864.869252956722,1671624094.072,527,154067,95231
20053,8864.87154153152,1671624094.072,528,154094,95242
20053,8864.873830106319,1671624094.072,528,154094,95242
20054,8864.876118681117,1671624094.072,528,154081,95226
20054,8864.878407255916,1671624094.072,528,154081,95226
20055,8864.880695830714,1671624094.072,528,154046,95188
20055,8864.882984405513,1671624094.072,528,154046,95188
20056,8864.885272980311,1671624094.072,527,154011,95207
20056,8864.88756155511,1671624094.072,527,154011,95207
20057,8864.889850129908,1671624094.072,526,154037,95210
20057,8864.892138704707,1671624094.072,526,154037,95210
20058,8864.894427279505,1671624094.166,526,153992,95229
20058,8864.896715854304,1671624094.166,526,153992,95229
20059,8864.899004429102,1671624094.166,526,154097,95214
20059,8864.9012930039,1671624094.166,526,154097,95214
20060,8864.978283870212,1671624094.166,527,154055,95197
20060,8864.985240369178,1671624094.166,527,154055,95197
20061,8864.992196868145,1671624094.166,527,154024,95205
20061,8864.999153367111,1671624094.166,527,154024,95205
20062,8865.006109866077,1671624094.166,528,154071,95143
20062,8865.013066365043,1671624094.166,528,154071,95143
20063,8865.02002286401,1671624094.166,526,154172,95087
20063,8865.026979362976,1671624094.166,526,154172,95087
20064,8865.033935861942,1671624094.274,529,154120,95020
20064,8865.040892360908,1671624094.274,529,154120,95020
20065,8865.047848859875,1671624094.274,527,154104,94991
20065,8865.05480535884,1671624094.274,527,154104,94991
20066,8865.061761857807,1671624094.274,525,154059,95003
20066,8865.068718356773,1671624094.274,525,154059,95003
20067,8865.07567485574,1671624094.274,526,154120,94998
20067,8865.082631354706,1671624094.274,526,154120,94998
20068,8865.089587853672,1671624094.274,527,154112,94945
20068,8865.096544352638,1671624094.274,527,154112,94945
20069,8865.103500851605,1671624094.274,528,154111,94917
20069,8865.11045735057,1671624094.274,528,154111,94917
20070,8865.150433326999,1671624094.366,526,154174,94852
20070,8865.158808632637,1671624094.366,526,154174,94852
20071,8865.167183938276,1671624094.366,526,154132,94854
20071,8865.175559243915,1671624094.366,526,154132,94854
20072,8865.183934549554,1671624094.366,526,154176,94815
20072,8865.192309855192,1671624094.366,526,154176,94815
20073,8865.200685160831,1671624094.366,525,154134,94813
20073,8865.20906046647,1671624094.366,525,154134,94813
20074,8865.217435772109,1671624094.366,525,154120,94803
20074,8865.225811077747,1671624094.366,525,154120,94803
20075,8865.234186383386,1671624094.366,525,154195,94823
20075,8865.242561689025,1671624094.366,525,154195,94823
20076,8865.250936994664,1671624094.504,526,154173,94846
20076,8865.259312300303,1671624094.504,526,154173,94846
20077,8865.267687605941,1671624094.504,525,154179,94879
20077,8865.27606291158,1671624094.504,525,154179,94879
20078,8865.284438217219,1671624094.504,526,154132,94897
20078,8865.292813522858,1671624094.504,526,154132,94897
20079,8865.301188828496,1671624094.504,525,154079,94903
20079,8865.309564134135,1671624094.504,525,154079,94903
20080,8865.337765371685,1671624094.504,524,154156,94946
20080,8865.348310677922,1671624094.504,524,154156,94946
20081,8865.35885598416,1671624094.504,523,154159,94992
20081,8865.369401290396,1671624094.504,523,154159,94992
20082,8865.379946596633,1671624094.545,524,154198,95076
20082,8865.39049190287,1671624094.545,524,154198,95076
20083,8865.401037209107,1671624094.545,522,154225,95210
20083,8865.411582515344,1671624094.545,522,154225,95210
20084,8865.422127821581,1671624094.545,523,154273,95354
20084,8865.432673127818,1671624094.545,523,154273,95354
20085,8865.443218434055,1671624094.545,523,154343,95523
20085,8865.453763740292,1671624094.545,523,154343,95523
20086,8865.464309046529,1671624094.545,522,154440,95640
20086,8865.474854352766,1671624094.545,522,154440,95640
20087,8865.485399659003,1671624094.545,523,154464,95764
20087,8865.49594496524,1671624094.545,523,154464,95764
20088,8865.506490271477,1671624094.643,524,154571,95906
20088,8865.517035577714,1671624094.643,524,154571,95906
20089,8865.52758088395,1671624094.643,522,154699,96038
20089,8865.538126190188,1671624094.643,522,154699,96038
20090,8865.450921574367,1671624094.643,520,154630,96090
20090,8865.45728460919,1671624094.643,520,154630,96090
20091,8865.463647644014,1671624094.643,520,154698,96171
20091,8865.470010678837,1671624094.643,520,154698,96171
20092,8865.47637371366,1671624094.643,520,154582,96257
20092,8865.482736748483,1671624094.643,520,154582,96257
20093,8865.489099783306,1671624094.643,520,154495,96382
20093,8865.49546281813,1671624094.643,520,154495,96382
20094,8865.501825852953,1671624094.736,521,154455,96523
20094,8865.508188887776,1671624094.736,521,154455,96523
20095,8865.514551922599,1671624094.736,518,154397,96751
20095,8865.520914957422,1671624094.736,518,154397,96751
20096,8865.527277992245,1671624094.736,520,154328,97140
20096,8865.533641027068,1671624094.736,520,154328,97140
20097,8865.540004061892,1671624094.736,519,154516,97654
20097,8865.546367096715,1671624094.736,519,154516,97654
20098,8865.552730131538,1671624094.736,517,155439,98347
20098,8865.559093166361,1671624094.736,517,155439,98347
20099,8865.565456201184,1671624094.736,517,156815,99101
20099,8865.571819236007,1671624094.736,517,156815,99101
20100,8865.611576028901,1671624094.834,517,158105,99721
20100,8865.618848473448,1671624094.834,517,158105,99721
20101,8865.626120917996,1671624094.834,515,160047,100681
20101,8865.633393362543,1671624094.834,515,160047,100681
20102,8865.64066580709,1671624094.834,517,162257,101411
20102,8865.647938251637,1671624094.834,517,162257,101411
20103,8865.655210696184,1671624094.834,517,163140,101831
20103,8865.662483140732,1671624094.834,517,163140,101831
20104,8865.669755585279,1671624094.834,516,163388,102066
20104,8865.677028029826,1671624094.834,516,163388,102066
20105,8865.684300474373,1671624094.834,516,163489,102209
20105,8865.69157291892,1671624094.834,516,163489,102209
20106,8865.698845363468,1671624094.92,515,163615,102373
20106,8865.706117808015,1671624094.92,515,163615,102373
20107,8865.713390252562,1671624094.92,515,163651,102520
20107,8865.72066269711,1671624094.92,515,163651,102520
20108,8865.727935141656,1671624094.92,516,163736,102663
20108,8865.735207586204,1671624094.92,516,163736,102663
20109,8865.74248003075,1671624094.92,516,163897,102934
20109,8865.749752475298,1671624094.92,516,163897,102934
20110,8865.766315736706,1671624094.92,517,163921,103068
20110,8865.773127946564,1671624094.92,517,163921,103068
20111,8865.779940156423,1671624094.92,517,164125,103055
20111,8865.78675236628,1671624094.92,517,164125,103055
20112,8865.793564576139,1671624095.02,517,164052,103034
20112,8865.800376785997,1671624095.02,517,164052,103034
20113,8865.807188995856,1671624095.02,518,164147,102997
20113,8865.814001205714,1671624095.02,518,164147,102997
20114,8865.820813415572,1671624095.02,517,164159,102972
20114,8865.82762562543,1671624095.02,517,164159,102972
20115,8865.834437835289,1671624095.02,517,164256,102882
20115,8865.841250045147,1671624095.02,517,164256,102882
20116,8865.848062255005,1671624095.02,517,164212,102747
20116,8865.854874464863,1671624095.02,517,164212,102747
20117,8865.861686674722,1671624095.02,518,164235,102462
20117,8865.86849888458,1671624095.02,518,164235,102462
20118,8865.875311094438,1671624095.111,518,164160,102047
20118,8865.882123304296,1671624095.111,518,164160,102047
20119,8865.888935514155,1671624095.111,520,164046,101517
20119,8865.895747724013,1671624095.111,520,164046,101517
20120,8865.925928226867,1671624095.111,520,163976,100950
20120,8865.933213938832,1671624095.111,520,163976,100950
20121,8865.940499650796,1671624095.111,521,163844,100452
20121,8865.947785362761,1671624095.111,521,163844,100452
20122,8865.955071074726,1671624095.111,522,163511,99969
20122,8865.962356786691,1671624095.111,522,163511,99969
20123,8865.969642498656,1671624095.111,520,163206,99589
20123,8865.97692821062,1671624095.111,520,163206,99589
20124,8865.984213922586,1671624095.201,522,162926,99226
20124,8865.99149963455,1671624095.201,522,162926,99226
20125,8865.998785346515,1671624095.201,523,162638,98914
20125,8866.00607105848,1671624095.201,523,162638,98914
20126,8866.013356770445,1671624095.201,525,162273,98700
20126,8866.02064248241,1671624095.201,525,162273,98700
20127,8866.027928194375,1671624095.201,527,161928,98563
20127,8866.03521390634,1671624095.201,527,161928,98563
20128,8866.042499618305,1671624095.201,525,161638,98471
20128,8866.04978533027,1671624095.201,525,161638,98471
20129,8866.057071042234,1671624095.201,526,161476,98371
20129,8866.0643567542,1671624095.201,526,161476,98371
20130,8866.076244914144,1671624095.306,525,161401,98163
20130,8866.083308223553,1671624095.306,525,161401,98163
20131,8866.090371532962,1671624095.306,523,161321,98054
20131,8866.097434842372,1671624095.306,523,161321,98054
20132,8866.10449815178,1671624095.306,526,161218,97901
20132,8866.11156146119,1671624095.306,526,161218,97901
20133,8866.1186247706,1671624095.306,526,161143,97803
20133,8866.125688080008,1671624095.306,526,161143,97803
20134,8866.132751389418,1671624095.306,527,161127,97735
20134,8866.139814698827,1671624095.306,527,161127,97735
20135,8866.146878008236,1671624095.306,527,161001,97643
20135,8866.153941317645,1671624095.306,527,161001,97643
20136,8866.161004627054,1671624095.39,527,160990,97529
20136,8866.168067936464,1671624095.39,527,160990,97529
20137,8866.175131245873,1671624095.39,525,160781,97310
20137,8866.182194555282,1671624095.39,525,160781,97310
20138,8866.189257864691,1671624095.39,527,160517,97008
20138,8866.1963211741,1671624095.39,527,160517,97008
20139,8866.20338448351,1671624095.39,526,160369,96820
20139,8866.210447792919,1671624095.39,526,160369,96820
20140,8866.236977882443,1671624095.39,526,160349,96670
20140,8866.243633148151,1671624095.39,526,160349,96670
20141,8866.25028841386,1671624095.39,528,160084,96540
20141,8866.256943679567,1671624095.39,528,160084,96540
20142,8866.263598945276,1671624095.492,528,160059,96452
20142,8866.270254210984,1671624095.492,528,160059,96452
20143,8866.276909476692,1671624095.492,528,159944,96358
20143,8866.2835647424,1671624095.492,528,159944,96358
20144,8866.290220008108,1671624095.492,528,159843,96261
20144,8866.296875273816,1671624095.492,528,159843,96261
20145,8866.303530539524,1671624095.492,527,159751,96131
20145,8866.310185805232,1671624095.492,527,159751,96131
20146,8866.31684107094,1671624095.492,526,159675,95941
20146,8866.323496336649,1671624095.492,526,159675,95941
20147,8866.330151602357,1671624095.492,525,159430,95627
20147,8866.336806868065,1671624095.492,525,159430,95627
20148,8866.343462133773,1671624095.574,527,159187,95353
20148,8866.350117399481,1671624095.574,527,159187,95353
20149,8866.356772665189,1671624095.574,527,159106,95230
20149,8866.363427930897,1671624095.574,527,159106,95230
20150,8866.394706933861,1671624095.574,529,159013,95177
20150,8866.40158396999,1671624095.574,529,159013,95177
20151,8866.408461006118,1671624095.574,530,159005,95156
20151,8866.415338042247,1671624095.574,530,159005,95156
20152,8866.422215078375,1671624095.574,527,158932,95097
20152,8866.429092114504,1671624095.574,527,158932,95097
20153,8866.435969150632,1671624095.574,528,158842,95083
20153,8866.442846186761,1671624095.574,528,158842,95083
20154,8866.44972322289,1671624095.683,527,158803,95080
20154,8866.456600259018,1671624095.683,527,158803,95080
20155,8866.463477295147,1671624095.683,527,158769,95029
20155,8866.470354331275,1671624095.683,527,158769,95029
20156,8866.477231367404,1671624095.683,526,158644,94984
20156,8866.484108403532,1671624095.683,526,158644,94984
20157,8866.490985439661,1671624095.683,528,158679,94991
20157,8866.49786247579,1671624095.683,528,158679,94991
20158,8866.504739511918,1671624095.683,529,158621,94902
20158,8866.511616548047,1671624095.683,529,158621,94902
20159,8866.518493584175,1671624095.683,528,158542,94844
20159,8866.525370620304,1671624095.683,528,158542,94844
20160,8866.552050889237,1671624095.771,528,158511,94790
20160,8866.559961852787,1671624095.771,528,158511,94790
20161,8866.567872816337,1671624095.771,528,158454,94739
20161,8866.575783779886,1671624095.771,528,158454,94739
20162,8866.583694743436,1671624095.771,528,158424,94664
20162,8866.591605706986,1671624095.771,528,158424,94664
20163,8866.599516670536,1671624095.771,528,158181,94277
20163,8866.607427634086,1671624095.771,528,158181,94277
20164,8866.615338597636,1671624095.771,528,157885,93687
20164,8866.623249561186,1671624095.771,528,157885,93687
20165,8866.631160524736,1671624095.771,529,157481,93307
20165,8866.639071488285,1671624095.771,529,157481,93307
20166,8866.646982451835,1671624095.856,531,157361,93269
20166,8866.654893415385,1671624095.856,531,157361,93269
20167,8866.662804378935,1671624095.856,529,157343,93315
20167,8866.670715342485,1671624095.856,529,157343,93315
20168,8866.678626306035,1671624095.856,530,157220,93437
20168,8866.686537269585,1671624095.856,530,157220,93437
20169,8866.694448233135,1671624095.856,529,157153,93506
20169,8866.702359196684,1671624095.856,529,157153,93506
20170,8866.7021121116,1671624095.856,528,157207,93612
20170,8866.708760194968,1671624095.856,528,157207,93612
20171,8866.715408278336,1671624095.856,527,157066,93699
20171,8866.722056361705,1671624095.856,527,157066,93699
20172,8866.728704445073,1671624095.957,528,157183,93775
20172,8866.735352528442,1671624095.957,528,157183,93775
20173,8866.74200061181,1671624095.957,528,157168,93822
20173,8866.748648695178,1671624095.957,528,157168,93822
20174,8866.755296778547,1671624095.957,529,157142,93885
20174,8866.761944861915,1671624095.957,529,157142,93885
20175,8866.768592945284,1671624095.957,529,157254,93948
20175,8866.775241028652,1671624095.957,529,157254,93948
20176,8866.78188911202,1671624095.957,530,157163,93968
20176,8866.788537195389,1671624095.957,530,157163,93968
20177,8866.795185278757,1671624095.957,529,157228,94009
20177,8866.801833362126,1671624095.957,529,157228,94009
20178,8866.808481445494,1671624096.05,530,157120,94026
20178,8866.815129528863,1671624096.05,530,157120,94026
20179,8866.821777612231,1671624096.05,528,157211,94033
20179,8866.8284256956,1671624096.05,528,157211,94033
20180,8866.863833001365,1671624096.05,529,157235,94071
20180,8866.871266018392,1671624096.05,529,157235,94071
20181,8866.878699035418,1671624096.05,529,157219,94069
20181,8866.886132052445,1671624096.05,529,157219,94069
20182,8866.893565069471,1671624096.05,529,157257,94070
20182,8866.900998086498,1671624096.05,529,157257,94070
20183,8866.908431103524,1671624096.05,530,157210,94083
20183,8866.91586412055,1671624096.05,530,157210,94083
20184,8866.923297137577,1671624096.144,529,157166,94069
20184,8866.930730154603,1671624096.144,529,157166,94069
20185,8866.93816317163,1671624096.144,529,157215,94074
20185,8866.945596188656,1671624096.144,529,157215,94074
20186,8866.953029205682,1671624096.144,529,157208,94090
20186,8866.960462222709,1671624096.144,529,157208,94090
20187,8866.967895239735,1671624096.144,528,157238,94050
20187,8866.975328256762,1671624096.144,528,157238,94050
20188,8866.982761273788,1671624096.144,529,157270,94072
20188,8866.990194290815,1671624096.144,529,157270,94072
20189,8866.997627307841,1671624096.144,531,157188,94065
20189,8867.005060324867,1671624096.144,531,157188,94065
20190,8867.019770184084,1671624096.242,529,157187,94047
20190,8867.02715176495,1671624096.242,529,157187,94047
20191,8867.034533345817,1671624096.242,531,157213,94018
20191,8867.041914926684,1671624096.242,531,157213,94018
20192,8867.04929650755,1671624096.242,531,157237,94010
20192,8867.056678088416,1671624096.242,531,157237,94010
20193,8867.064059669283,1671624096.242,529,157258,94030
20193,8867.07144125015,1671624096.242,529,157258,94030
20194,8867.078822831016,1671624096.242,529,157156,93993
20194,8867.086204411882,1671624096.242,529,157156,93993
20195,8867.093585992749,1671624096.242,528,157111,93964
20195,8867.100967573615,1671624096.242,528,157111,93964
20196,8867.108349154481,1671624096.326,528,157139,93949
20196,8867.115730735348,1671624096.326,528,157139,93949
20197,8867.123112316214,1671624096.326,530,157060,93917
20197,8867.13049389708,1671624096.326,530,157060,93917
20198,8867.137875477947,1671624096.326,530,157000,93920
20198,8867.145257058814,1671624096.326,530,157000,93920
20199,8867.15263863968,1671624096.326,530,157066,93896
20199,8867.160020220546,1671624096.326,530,157066,93896
20200,8867.172875969774,1671624096.326,530,157001,93880
20200,8867.179565784943,1671624096.326,530,157001,93880
20201,8867.186255600112,1671624096.326,530,156973,93882
20201,8867.192945415281,1671624096.326,530,156973,93882
20202,8867.19963523045,1671624096.423,529,156959,93844
20202,8867.20632504562,1671624096.423,529,156959,93844
20203,8867.213014860788,1671624096.423,529,156981,93820
20203,8867.219704675957,1671624096.423,529,156981,93820
20204,8867.226394491126,1671624096.423,528,156892,93833
20204,8867.233084306295,1671624096.423,528,156892,93833
20205,8867.239774121465,1671624096.423,529,156902,93808
20205,8867.246463936634,1671624096.423,529,156902,93808
20206,8867.253153751803,1671624096.423,530,156941,93809
20206,8867.259843566972,1671624096.423,530,156941,93809
20207,8867.26653338214,1671624096.423,530,156839,93771
20207,8867.27322319731,1671624096.423,530,156839,93771
20208,8867.279913012479,1671624096.626,530,156899,93796
20208,8867.286602827648,1671624096.626,530,156899,93796
20209,8867.293292642817,1671624096.626,530,156881,93767
20209,8867.299982457986,1671624096.626,530,156881,93767
20210,8867.372270104024,1671624096.626,530,156959,93768
20210,8867.385658999674,1671624096.626,530,156959,93768
20211,8867.399047895324,1671624096.626,528,156858,93752
20211,8867.412436790974,1671624096.626,528,156858,93752
20212,8867.425825686623,1671624096.626,528,156828,93739
20212,8867.439214582273,1671624096.626,528,156828,93739
20213,8867.452603477923,1671624096.626,530,156860,93744
20213,8867.465992373573,1671624096.626,530,156860,93744
20214,8867.479381269222,1671624096.639,529,156831,93726
20214,8867.492770164872,1671624096.639,529,156831,93726
20215,8867.506159060522,1671624096.639,530,156807,93714
20215,8867.519547956172,1671624096.639,530,156807,93714
20216,8867.532936851821,1671624096.639,530,156797,93729
20216,8867.546325747471,1671624096.639,530,156797,93729
20217,8867.559714643121,1671624096.639,530,156741,93706
20217,8867.57310353877,1671624096.639,530,156741,93706
20218,8867.58649243442,1671624096.639,528,156853,93714
20218,8867.59988133007,1671624096.639,528,156853,93714
20219,8867.61327022572,1671624096.639,528,156807,93736
20219,8867.62665912137,1671624096.639,528,156807,93736
20220,8867.506931089665,1671624096.69,530,156768,93692
20220,8867.508139845577,1671624096.69,530,156768,93692
20221,8867.509348601488,1671624096.69,529,156823,93714
20221,8867.5105573574,1671624096.69,529,156823,93714
20222,8867.511766113312,1671624096.69,531,156790,93707
20222,8867.512974869223,1671624096.69,531,156790,93707
20223,8867.514183625135,1671624096.69,531,156824,93707
20223,8867.515392381047,1671624096.69,531,156824,93707
20224,8867.516601136958,1671624096.69,530,156805,93709
20224,8867.51780989287,1671624096.69,530,156805,93709
20225,8867.519018648782,1671624096.69,530,156825,93700
20225,8867.520227404693,1671624096.69,530,156825,93700
20226,8867.521436160605,1671624096.8,530,156856,93712
20226,8867.522644916517,1671624096.8,530,156856,93712
20227,8867.523853672428,1671624096.8,529,156834,93702
20227,8867.52506242834,1671624096.8,529,156834,93702
20228,8867.526271184252,1671624096.8,529,156836,93703
20228,8867.527479940163,1671624096.8,529,156836,93703
20229,8867.528688696075,1671624096.8,529,156813,93691
20229,8867.529897451986,1671624096.8,529,156813,93691
20230,8867.639676336034,1671624096.8,531,156863,93732
20230,8867.647996313459,1671624096.8,531,156863,93732
20231,8867.656316290884,1671624096.8,530,156845,93711
20231,8867.66463626831,1671624096.8,530,156845,93711
20232,8867.672956245735,1671624096.921,531,156843,93740
20232,8867.68127622316,1671624096.921,531,156843,93740
20233,8867.689596200586,1671624096.921,529,156879,93733
20233,8867.697916178011,1671624096.921,529,156879,93733
20234,8867.706236155436,1671624096.921,528,156763,93705
20234,8867.714556132862,1671624096.921,528,156763,93705
20235,8867.722876110287,1671624096.921,529,156752,93724
20235,8867.731196087712,1671624096.921,529,156752,93724
20236,8867.739516065138,1671624096.921,529,156897,93752
20236,8867.747836042563,1671624096.921,529,156897,93752
20237,8867.756156019988,1671624096.921,530,156847,93735
20237,8867.764475997414,1671624096.921,530,156847,93735
20238,8867.772795974839,1671624096.99,529,156927,93738
20238,8867.781115952264,1671624096.99,529,156927,93738
20239,8867.78943592969,1671624096.99,531,156894,93742
20239,8867.797755907115,1671624096.99,531,156894,93742
20240,8867.81948936289,1671624096.99,530,156863,93749
20240,8867.826069150793,1671624096.99,530,156863,93749
20241,8867.832648938696,1671624096.99,530,156913,93749
20241,8867.8392287266,1671624096.99,530,156913,93749
20242,8867.845808514503,1671624096.99,530,156898,93756
20242,8867.852388302406,1671624096.99,530,156898,93756
20243,8867.85896809031,1671624096.99,528,156940,93772
20243,8867.865547878213,1671624096.99,528,156940,93772
20244,8867.872127666116,1671624097.083,527,156966,93754
20244,8867.87870745402,1671624097.083,527,156966,93754
20245,8867.885287241923,1671624097.083,529,156928,93758
20245,8867.891867029826,1671624097.083,529,156928,93758
20246,8867.89844681773,1671624097.083,529,156987,93747
20246,8867.905026605633,1671624097.083,529,156987,93747
20247,8867.911606393536,1671624097.083,531,156920,93739
20247,8867.91818618144,1671624097.083,531,156920,93739
20248,8867.924765969343,1671624097.083,530,156916,93756
20248,8867.931345757246,1671624097.083,530,156916,93756
20249,8867.93792554515,1671624097.083,531,156901,93724
20249,8867.944505333053,1671624097.083,531,156901,93724
20250,8867.958506639423,1671624097.174,529,156842,93707
20250,8867.965768729773,1671624097.174,529,156842,93707
20251,8867.973030820123,1671624097.174,529,156877,93693
20251,8867.980292910474,1671624097.174,529,156877,93693
20252,8867.987555000824,1671624097.174,528,156791,93665
20252,8867.994817091174,1671624097.174,528,156791,93665
20253,8868.002079181524,1671624097.174,530,156828,93660
20253,8868.009341271874,1671624097.174,530,156828,93660
20254,8868.016603362224,1671624097.174,529,156787,93667
20254,8868.023865452575,1671624097.174,529,156787,93667
20255,8868.031127542925,1671624097.174,530,156738,93662
20255,8868.038389633275,1671624097.174,530,156738,93662
20256,8868.045651723625,1671624097.269,530,156746,93619
20256,8868.052913813975,1671624097.269,530,156746,93619
20257,8868.060175904326,1671624097.269,529,156746,93651
20257,8868.067437994676,1671624097.269,529,156746,93651
20258,8868.074700085026,1671624097.269,531,156688,93646
20258,8868.081962175376,1671624097.269,531,156688,93646
20259,8868.089224265726,1671624097.269,528,156741,93606
20259,8868.096486356077,1671624097.269,528,156741,93606
20260,8868.112596403513,1671624097.269,530,156701,93591
20260,8868.12000965652,1671624097.269,530,156701,93591
20261,8868.127422909529,1671624097.269,530,156749,93599
20261,8868.134836162537,1671624097.269,530,156749,93599
20262,8868.142249415545,1671624097.37,530,156684,93559
20262,8868.149662668553,1671624097.37,530,156684,93559
20263,8868.157075921561,1671624097.37,532,156786,93566
20263,8868.16448917457,1671624097.37,532,156786,93566
20264,8868.171902427577,1671624097.37,531,156687,93542
20264,8868.179315680585,1671624097.37,531,156687,93542
20265,8868.186728933593,1671624097.37,530,156777,93535
20265,8868.194142186601,1671624097.37,530,156777,93535
20266,8868.20155543961,1671624097.37,531,156679,93498
20266,8868.208968692617,1671624097.37,531,156679,93498
20267,8868.216381945625,1671624097.37,529,156639,93520
20267,8868.223795198634,1671624097.37,529,156639,93520
20268,8868.231208451642,1671624097.445,530,156684,93520
20268,8868.23862170465,1671624097.445,530,156684,93520
20269,8868.246034957658,1671624097.445,531,156691,93509
20269,8868.253448210666,1671624097.445,531,156691,93509
20270,8868.269604287267,1671624097.445,531,156647,93522
20270,8868.27604849985,1671624097.445,531,156647,93522
20271,8868.282492712435,1671624097.445,531,156656,93496
20271,8868.288936925019,1671624097.445,531,156656,93496
20272,8868.295381137603,1671624097.445,529,156676,93517
20272,8868.301825350187,1671624097.445,529,156676,93517
20273,8868.30826956277,1671624097.445,531,156590,93496
20273,8868.314713775355,1671624097.445,531,156590,93496
20274,8868.321157987939,1671624097.544,531,156612,93511
20274,8868.327602200523,1671624097.544,531,156612,93511
20275,8868.334046413107,1671624097.544,529,156554,93497
20275,8868.340490625691,1671624097.544,529,156554,93497
20276,8868.346934838275,1671624097.544,529,156592,93491
20276,8868.353379050859,1671624097.544,529,156592,93491
20277,8868.359823263443,1671624097.544,529,156625,93504
20277,8868.366267476027,1671624097.544,529,156625,93504
20278,8868.372711688611,1671624097.544,531,156617,93502
20278,8868.379155901195,1671624097.544,531,156617,93502
20279,8868.38560011378,1671624097.544,532,156539,93503
20279,8868.392044326363,1671624097.544,532,156539,93503
20280,8868.420362783545,1671624097.69,529,156674,93526
20280,8868.428132045108,1671624097.69,529,156674,93526
20281,8868.435901306671,1671624097.69,530,156627,93489
20281,8868.443670568235,1671624097.69,530,156627,93489
20282,8868.451439829798,1671624097.69,529,156622,93503
20282,8868.459209091361,1671624097.69,529,156622,93503
20283,8868.466978352924,1671624097.69,528,156628,93493
20283,8868.474747614488,1671624097.69,528,156628,93493
20284,8868.48251687605,1671624097.69,530,156662,93534
20284,8868.490286137614,1671624097.69,530,156662,93534
20285,8868.498055399177,1671624097.69,531,156676,93509
20285,8868.50582466074,1671624097.69,531,156676,93509
20286,8868.513593922304,1671624097.735,531,156685,93525
20286,8868.521363183867,1671624097.735,531,156685,93525
20287,8868.52913244543,1671624097.735,533,156644,93539
20287,8868.536901706993,1671624097.735,533,156644,93539
20288,8868.544670968557,1671624097.735,532,156694,93537
20288,8868.55244023012,1671624097.735,532,156694,93537
20289,8868.560209491683,1671624097.735,531,156688,93532
20289,8868.567978753246,1671624097.735,531,156688,93532
20290,8868.592015446646,1671624097.735,528,156710,93541
20290,8868.595998115297,1671624097.735,528,156710,93541
20291,8868.599980783949,1671624097.735,530,156649,93530
20291,8868.6039634526,1671624097.735,530,156649,93530
20292,8868.607946121252,1671624097.846,528,156717,93570
20292,8868.611928789904,1671624097.846,528,156717,93570
20293,8868.615911458555,1671624097.846,530,156674,93558
20293,8868.619894127207,1671624097.846,530,156674,93558
20294,8868.623876795858,1671624097.846,530,156666,93570
20294,8868.62785946451,1671624097.846,530,156666,93570
20295,8868.631842133162,1671624097.846,532,156797,93613
20295,8868.635824801813,1671624097.846,532,156797,93613
20296,8868.639807470465,1671624097.846,530,156793,93605
20296,8868.643790139116,1671624097.846,530,156793,93605
20297,8868.647772807768,1671624097.846,531,156742,93613
20297,8868.65175547642,1671624097.846,531,156742,93613
20298,8868.655738145071,1671624097.916,530,156732,93600
20298,8868.659720813723,1671624097.916,530,156732,93600
20299,8868.663703482374,1671624097.916,529,156612,93631
20299,8868.667686151026,1671624097.916,529,156612,93631
20300,8868.744309253996,1671624097.916,530,156650,93608
20300,8868.750681923844,1671624097.916,530,156650,93608
20301,8868.757054593692,1671624097.916,530,156659,93596
20301,8868.76342726354,1671624097.916,530,156659,93596
20302,8868.769799933389,1671624097.916,530,156642,93580
20302,8868.776172603237,1671624097.916,530,156642,93580
20303,8868.782545273085,1671624097.916,530,156547,93580
20303,8868.788917942933,1671624097.916,530,156547,93580
20304,8868.795290612781,1671624098.092,530,156570,93577
20304,8868.80166328263,1671624098.092,530,156570,93577
20305,8868.808035952477,1671624098.092,530,156559,93564
20305,8868.814408622326,1671624098.092,530,156559,93564
20306,8868.820781292174,1671624098.092,529,156552,93561
20306,8868.827153962022,1671624098.092,529,156552,93561
20307,8868.83352663187,1671624098.092,529,156570,93555
20307,8868.839899301718,1671624098.092,529,156570,93555
20308,8868.846271971566,1671624098.092,529,156600,93585
20308,8868.852644641414,1671624098.092,529,156600,93585
20309,8868.859017311263,1671624098.092,528,156607,93568
20309,8868.86538998111,1671624098.092,528,156607,93568
20310,8868.975243656647,1671624098.124,529,156616,93567
20310,8868.988896897023,1671624098.124,529,156616,93567
20311,8869.002550137398,1671624098.124,531,156533,93566
20311,8869.016203377774,1671624098.124,531,156533,93566
20312,8869.02985661815,1671624098.124,529,156543,93556
20312,8869.043509858526,1671624098.124,529,156543,93556
20313,8869.057163098902,1671624098.124,530,156596,93575
20313,8869.070816339277,1671624098.124,530,156596,93575
20314,8869.084469579653,1671624098.124,530,156563,93557
20314,8869.098122820029,1671624098.124,530,156563,93557
20315,8869.111776060405,1671624098.124,529,156559,93574
20315,8869.12542930078,1671624098.124,529,156559,93574
20316,8869.139082541156,1671624098.204,530,156604,93564
20316,8869.152735781532,1671624098.204,530,156604,93564
20317,8869.166389021908,1671624098.204,531,156468,93569
20317,8869.180042262284,1671624098.204,531,156468,93569
20318,8869.19369550266,1671624098.204,530,156566,93560
20318,8869.207348743035,1671624098.204,530,156566,93560
20319,8869.221001983411,1671624098.204,530,156531,93561
20319,8869.234655223787,1671624098.204,530,156531,93561
20320,8869.050711114372,1671624098.204,530,156528,93551
20320,8869.056741253426,1671624098.204,530,156528,93551
20321,8869.062771392479,1671624098.204,530,156519,93548
20321,8869.068801531532,1671624098.204,530,156519,93548
20322,8869.074831670585,1671624098.301,529,156577,93549
20322,8869.080861809638,1671624098.301,529,156577,93549
20323,8869.086891948691,1671624098.301,529,156535,93542
20323,8869.092922087744,1671624098.301,529,156535,93542
20324,8869.098952226797,1671624098.301,529,156526,93545
20324,8869.10498236585,1671624098.301,529,156526,93545
20325,8869.111012504904,1671624098.301,528,156531,93539
20325,8869.117042643957,1671624098.301,528,156531,93539
20326,8869.12307278301,1671624098.301,531,156594,93553
20326,8869.129102922063,1671624098.301,531,156594,93553
20327,8869.135133061116,1671624098.301,530,156559,93530
20327,8869.14116320017,1671624098.301,530,156559,93530
20328,8869.147193339222,1671624098.406,530,156536,93552
20328,8869.153223478275,1671624098.406,530,156536,93552
20329,8869.159253617328,1671624098.406,531,156526,93553
20329,8869.165283756382,1671624098.406,531,156526,93553
20330,8869.21220588483,1671624098.406,530,156516,93538
20330,8869.220208180825,1671624098.406,530,156516,93538
20331,8869.228210476818,1671624098.406,529,156566,93538
20331,8869.236212772812,1671624098.406,529,156566,93538
20332,8869.244215068806,1671624098.406,529,156516,93531
20332,8869.2522173648,1671624098.406,529,156516,93531
20333,8869.260219660793,1671624098.406,530,156632,93529
20333,8869.268221956787,1671624098.406,530,156632,93529
20334,8869.27622425278,1671624098.508,529,156572,93528
20334,8869.284226548774,1671624098.508,529,156572,93528
20335,8869.292228844768,1671624098.508,531,156560,93525
20335,8869.300231140762,1671624098.508,531,156560,93525
20336,8869.308233436755,1671624098.508,530,156613,93537
20336,8869.31623573275,1671624098.508,530,156613,93537
20337,8869.324238028743,1671624098.508,532,156636,93527
20337,8869.332240324737,1671624098.508,532,156636,93527
20338,8869.34024262073,1671624098.508,529,156621,93539
20338,8869.348244916724,1671624098.508,529,156621,93539
20339,8869.356247212718,1671624098.508,528,156651,93532
20339,8869.364249508712,1671624098.508,528,156651,93532
20340,8869.384216580796,1671624098.574,529,156604,93543
20340,8869.392200726452,1671624098.574,529,156604,93543
20341,8869.400184872107,1671624098.574,529,156638,93521
20341,8869.408169017763,1671624098.574,529,156638,93521
20342,8869.416153163418,1671624098.574,529,156657,93526
20342,8869.424137309074,1671624098.574,529,156657,93526
20343,8869.432121454729,1671624098.574,531,156684,93514
20343,8869.440105600384,1671624098.574,531,156684,93514
20344,8869.44808974604,1671624098.574,530,156714,93513
20344,8869.456073891695,1671624098.574,530,156714,93513
20345,8869.46405803735,1671624098.574,530,156721,93526
20345,8869.472042183006,1671624098.574,530,156721,93526
20346,8869.480026328662,1671624098.669,530,156648,93523
20346,8869.488010474317,1671624098.669,530,156648,93523
20347,8869.495994619972,1671624098.669,528,156622,93518
20347,8869.503978765628,1671624098.669,528,156622,93518
20348,8869.511962911283,1671624098.669,529,156626,93511
20348,8869.519947056939,1671624098.669,529,156626,93511
20349,8869.527931202594,1671624098.669,529,156605,93498
20349,8869.53591534825,1671624098.669,529,156605,93498
20350,8869.512923768425,1671624098.669,531,156627,93468
20350,8869.52019014259,1671624098.669,531,156627,93468
20351,8869.527456516755,1671624098.669,530,156530,93477
20351,8869.53472289092,1671624098.669,530,156530,93477
20352,8869.541989265084,1671624098.812,532,156527,93461
20352,8869.54925563925,1671624098.812,532,156527,93461
20353,8869.556522013414,1671624098.812,531,156536,93440
20353,8869.563788387579,1671624098.812,531,156536,93440
20354,8869.571054761744,1671624098.812,530,156505,93419
20354,8869.578321135908,1671624098.812,530,156505,93419
20355,8869.585587510073,1671624098.812,529,156436,93403
20355,8869.592853884238,1671624098.812,529,156436,93403
20356,8869.600120258403,1671624098.812,529,156518,93393
20356,8869.607386632568,1671624098.812,529,156518,93393
20357,8869.614653006733,1671624098.812,529,156450,93401
20357,8869.621919380897,1671624098.812,529,156450,93401
20358,8869.629185755062,1671624098.854,529,156413,93401
20358,8869.636452129227,1671624098.854,529,156413,93401
20359,8869.643718503392,1671624098.854,530,156527,93399
20359,8869.650984877557,1671624098.854,530,156527,93399
20360,8869.700737618972,1671624098.854,531,156441,93359
20360,8869.706331091744,1671624098.854,531,156441,93359
20361,8869.711924564515,1671624098.854,530,156381,93361
20361,8869.717518037287,1671624098.854,530,156381,93361
20362,8869.723111510059,1671624098.854,530,156489,93371
20362,8869.72870498283,1671624098.854,530,156489,93371
20363,8869.734298455602,1671624098.854,528,156403,93365
20363,8869.739891928373,1671624098.854,528,156403,93365
20364,8869.745485401145,1671624098.961,527,156455,93370
20364,8869.751078873916,1671624098.961,527,156455,93370
20365,8869.756672346688,1671624098.961,528,156468,93341
20365,8869.76226581946,1671624098.961,528,156468,93341
20366,8869.767859292231,1671624098.961,529,156383,93335
20366,8869.773452765003,1671624098.961,529,156383,93335
20367,8869.779046237774,1671624098.961,531,156357,93308
20367,8869.784639710546,1671624098.961,531,156357,93308
20368,8869.790233183317,1671624098.961,530,156310,93308
20368,8869.795826656089,1671624098.961,530,156310,93308
20369,8869.80142012886,1671624098.961,530,156401,93303
20369,8869.807013601632,1671624098.961,530,156401,93303
20370,8869.838319798984,1671624099.045,528,156409,93282
20370,8869.846680075978,1671624099.045,528,156409,93282
20371,8869.855040352972,1671624099.045,529,156366,93279
20371,8869.863400629965,1671624099.045,529,156366,93279
20372,8869.871760906959,1671624099.045,528,156355,93259
20372,8869.880121183953,1671624099.045,528,156355,93259
20373,8869.888481460946,1671624099.045,529,156412,93263
20373,8869.89684173794,1671624099.045,529,156412,93263
20374,8869.905202014934,1671624099.045,530,156353,93243
20374,8869.913562291928,1671624099.045,530,156353,93243
20375,8869.921922568921,1671624099.045,530,156400,93244
20375,8869.930282845915,1671624099.045,530,156400,93244
20376,8869.938643122909,1671624099.152,531,156375,93237
20376,8869.947003399902,1671624099.152,531,156375,93237
20377,8869.955363676896,1671624099.152,531,156433,93210
20377,8869.96372395389,1671624099.152,531,156433,93210
20378,8869.972084230883,1671624099.152,530,156399,93220
20378,8869.980444507877,1671624099.152,530,156399,93220
20379,8869.98880478487,1671624099.152,530,156348,93181
20379,8869.997165061865,1671624099.152,530,156348,93181
20380,8869.992974472485,1671624099.152,529,156434,93219
20380,8870.001246928616,1671624099.152,529,156434,93219
20381,8870.009519384746,1671624099.152,530,156451,93209
20381,8870.017791840877,1671624099.152,530,156451,93209
20382,8870.026064297008,1671624099.233,532,156401,93198
20382,8870.034336753139,1671624099.233,532,156401,93198
20383,8870.04260920927,1671624099.233,531,156389,93213
20383,8870.0508816654,1671624099.233,531,156389,93213
20384,8870.05915412153,1671624099.233,531,156409,93173
20384,8870.067426577662,1671624099.233,531,156409,93173
20385,8870.075699033792,1671624099.233,530,156379,93174
20385,8870.083971489923,1671624099.233,530,156379,93174
20386,8870.092243946054,1671624099.233,530,156478,93183
20386,8870.100516402184,1671624099.233,530,156478,93183
20387,8870.108788858315,1671624099.233,529,156473,93168
20387,8870.117061314446,1671624099.233,529,156473,93168
20388,8870.125333770577,1671624099.322,528,156481,93181
20388,8870.133606226707,1671624099.322,528,156481,93181
20389,8870.141878682838,1671624099.322,529,156520,93183
20389,8870.150151138969,1671624099.322,529,156520,93183
20390,8870.137342070886,1671624099.322,530,156470,93181
20390,8870.14414299012,1671624099.322,530,156470,93181
20391,8870.150943909355,1671624099.322,531,156469,93179
20391,8870.15774482859,1671624099.322,531,156469,93179
20392,8870.164545747824,1671624099.322,531,156476,93167
20392,8870.171346667059,1671624099.322,531,156476,93167
20393,8870.178147586294,1671624099.322,530,156455,93191
20393,8870.184948505528,1671624099.322,530,156455,93191
20394,8870.191749424763,1671624099.41,529,156520,93165
20394,8870.198550343997,1671624099.41,529,156520,93165
20395,8870.205351263232,1671624099.41,528,156507,93186
20395,8870.212152182467,1671624099.41,528,156507,93186
20396,8870.218953101701,1671624099.41,527,156486,93183
20396,8870.225754020936,1671624099.41,527,156486,93183
20397,8870.23255494017,1671624099.41,530,156542,93181
20397,8870.239355859405,1671624099.41,530,156542,93181
20398,8870.24615677864,1671624099.41,530,156518,93178
20398,8870.252957697874,1671624099.41,530,156518,93178
20399,8870.259758617109,1671624099.41,531,156458,93146
20399,8870.266559536343,1671624099.41,531,156458,93146
20400,8870.284994370497,1671624099.534,530,156424,93159
20400,8870.291845243926,1671624099.534,530,156424,93159
20401,8870.298696117356,1671624099.534,529,156471,93135
20401,8870.305546990785,1671624099.534,529,156471,93135
20402,8870.312397864214,1671624099.534,530,156367,93131
20402,8870.319248737644,1671624099.534,530,156367,93131
20403,8870.326099611073,1671624099.534,529,156422,93137
20403,8870.332950484502,1671624099.534,529,156422,93137
20404,8870.339801357932,1671624099.534,528,156403,93129
20404,8870.346652231361,1671624099.534,528,156403,93129
20405,8870.35350310479,1671624099.534,529,156342,93097
20405,8870.36035397822,1671624099.534,529,156342,93097
20406,8870.36720485165,1671624099.608,531,156281,93095
20406,8870.374055725079,1671624099.608,531,156281,93095
20407,8870.380906598508,1671624099.608,529,156402,93094
20407,8870.387757471937,1671624099.608,529,156402,93094
20408,8870.394608345367,1671624099.608,531,156332,93062
20408,8870.401459218796,1671624099.608,531,156332,93062
20409,8870.408310092225,1671624099.608,531,156270,93082
20409,8870.415160965655,1671624099.608,531,156270,93082
20410,8870.45720574329,1671624099.608,530,156274,93083
20410,8870.463167978654,1671624099.608,530,156274,93083
20411,8870.469130214018,1671624099.608,529,156344,93070
20411,8870.475092449382,1671624099.608,529,156344,93070
20412,8870.481054684746,1671624099.704,528,156283,93048
20412,8870.48701692011,1671624099.704,528,156283,93048
20413,8870.492979155473,1671624099.704,528,156351,93099
20413,8870.498941390837,1671624099.704,528,156351,93099
20414,8870.5049036262,1671624099.704,530,156296,93063
20414,8870.510865861565,1671624099.704,530,156296,93063
20415,8870.516828096928,1671624099.704,531,156267,93061
20415,8870.522790332292,1671624099.704,531,156267,93061
20416,8870.528752567656,1671624099.704,530,156252,93062
20416,8870.53471480302,1671624099.704,530,156252,93062
20417,8870.540677038383,1671624099.704,531,156233,93036
20417,8870.546639273747,1671624099.704,531,156233,93036
20418,8870.55260150911,1671624099.791,529,156289,93040
20418,8870.558563744475,1671624099.791,529,156289,93040
20419,8870.564525979838,1671624099.791,529,156307,93039
20419,8870.570488215202,1671624099.791,529,156307,93039
20420,8870.60801639399,1671624099.791,529,156290,93037
20420,8870.6150461648,1671624099.791,529,156290,93037
20421,8870.62207593561,1671624099.791,529,156278,93041
20421,8870.629105706419,1671624099.791,529,156278,93041
20422,8870.636135477229,1671624099.791,530,156270,93010
20422,8870.643165248039,1671624099.791,530,156270,93010
20423,8870.650195018849,1671624099.791,530,156288,93027
20423,8870.657224789658,1671624099.791,530,156288,93027
20424,8870.664254560468,1671624099.895,530,156181,92988
20424,8870.671284331278,1671624099.895,530,156181,92988
20425,8870.678314102088,1671624099.895,529,156317,93017
20425,8870.685343872898,1671624099.895,529,156317,93017
20426,8870.692373643707,1671624099.895,529,156281,93004
20426,8870.699403414517,1671624099.895,529,156281,93004
20427,8870.706433185327,1671624099.895,529,156282,93002
20427,8870.713462956137,1671624099.895,529,156282,93002
20428,8870.720492726947,1671624099.895,529,156248,92970
20428,8870.727522497757,1671624099.895,529,156248,92970
20429,8870.734552268566,1671624099.895,527,156311,92999
20429,8870.741582039376,1671624099.895,527,156311,92999
20430,8870.77129681859,1671624099.978,528,156342,92990
20430,8870.779383141886,1671624099.978,528,156342,92990
20431,8870.787469465182,1671624099.978,531,156262,92991
20431,8870.795555788478,1671624099.978,531,156262,92991
20432,8870.803642111774,1671624099.978,531,156319,92963
20432,8870.81172843507,1671624099.978,531,156319,92963
20433,8870.819814758366,1671624099.978,529,156325,92972
20433,8870.827901081662,1671624099.978,529,156325,92972
20434,8870.835987404958,1671624099.978,529,156368,92957
20434,8870.844073728254,1671624099.978,529,156368,92957
20435,8870.85216005155,1671624099.978,528,156321,92923
20435,8870.860246374847,1671624099.978,528,156321,92923
20436,8870.868332698143,1671624100.09,529,156380,92922
20436,8870.876419021439,1671624100.09,529,156380,92922
20437,8870.884505344735,1671624100.09,529,156307,92926
20437,8870.892591668031,1671624100.09,529,156307,92926
20438,8870.900677991327,1671624100.09,529,156351,92896
20438,8870.908764314623,1671624100.09,529,156351,92896
20439,8870.91685063792,1671624100.09,529,156365,92905
20439,8870.924936961215,1671624100.09,529,156365,92905
20440,8870.929741823655,1671624100.09,529,156355,92894
20440,8870.938322815924,1671624100.09,529,156355,92894
20441,8870.946903808193,1671624100.09,530,156392,92886
20441,8870.955484800463,1671624100.09,530,156392,92886
20442,8870.964065792732,1671624100.181,530,156358,92864
20442,8870.972646785001,1671624100.181,530,156358,92864
20443,8870.98122777727,1671624100.181,528,156416,92885
20443,8870.98980876954,1671624100.181,528,156416,92885
20444,8870.99838976181,1671624100.181,528,156426,92909
20444,8871.006970754079,1671624100.181,528,156426,92909
20445,8871.015551746348,1671624100.181,529,156367,92892
20445,8871.024132738617,1671624100.181,529,156367,92892
20446,8871.032713730887,1671624100.181,529,156406,92898
20446,8871.041294723156,1671624100.181,529,156406,92898
20447,8871.049875715426,1671624100.181,531,156395,92860
20447,8871.058456707695,1671624100.181,531,156395,92860
20448,8871.067037699964,1671624100.258,531,156442,92887
20448,8871.075618692234,1671624100.258,531,156442,92887
20449,8871.084199684503,1671624100.258,530,156506,92882
20449,8871.092780676772,1671624100.258,530,156506,92882
20450,8871.08098003452,1671624100.258,531,156404,92855
20450,8871.087355249529,1671624100.258,531,156404,92855
20451,8871.093730464538,1671624100.258,529,156462,92846
20451,8871.100105679547,1671624100.258,529,156462,92846
20452,8871.106480894556,1671624100.258,530,156392,92838
20452,8871.112856109565,1671624100.258,530,156392,92838
20453,8871.119231324574,1671624100.258,530,156361,92819
20453,8871.125606539583,1671624100.258,530,156361,92819
20454,8871.131981754592,1671624100.364,529,156419,92821
20454,8871.1383569696,1671624100.364,529,156419,92821
20455,8871.14473218461,1671624100.364,530,156328,92773
20455,8871.151107399619,1671624100.364,530,156328,92773
20456,8871.157482614628,1671624100.364,530,156379,92782
20456,8871.163857829637,1671624100.364,530,156379,92782
20457,8871.170233044646,1671624100.364,529,156302,92779
20457,8871.176608259655,1671624100.364,529,156302,92779
20458,8871.182983474664,1671624100.364,530,156349,92770
20458,8871.189358689673,1671624100.364,530,156349,92770
20459,8871.195733904682,1671624100.364,530,156309,92758
20459,8871.202109119691,1671624100.364,530,156309,92758
20460,8871.24067318658,1671624100.446,528,156321,92727
20460,8871.248906683162,1671624100.446,528,156321,92727
20461,8871.257140179745,1671624100.446,529,156311,92735
20461,8871.265373676328,1671624100.446,529,156311,92735
20462,8871.27360717291,1671624100.446,528,156302,92722
20462,8871.281840669493,1671624100.446,528,156302,92722
20463,8871.290074166076,1671624100.446,530,156294,92717
20463,8871.298307662659,1671624100.446,530,156294,92717
20464,8871.306541159242,1671624100.446,531,156267,92710
20464,8871.314774655824,1671624100.446,531,156267,92710
20465,8871.323008152407,1671624100.446,530,156275,92678
20465,8871.33124164899,1671624100.446,530,156275,92678
20466,8871.339475145573,1671624100.586,530,156193,92693
20466,8871.347708642155,1671624100.586,530,156193,92693
20467,8871.355942138738,1671624100.586,530,156297,92683
