id,lsl_ts,unix_ts,ambient,ir,red
42702,9626.780229650001,1671624855.927,572,131008,83897
42702,9626.780229650001,1671624855.927,572,131008,83897
42703,9626.7829671,1671624855.927,548,155391,87440
42703,9626.7829671,1671624855.927,548,155391,87440
42704,9626.78570455,1671624855.927,546,155360,87445
42704,9626.78570455,1671624855.927,546,155360,87445
42705,9626.788442000001,1671624855.927,548,155429,87418
42705,9626.788442000001,1671624855.927,548,155429,87418
42706,9626.79117945,1671624855.927,547,155455,87420
42706,9626.79117945,1671624855.927,547,155455,87420
42707,9626.7939169,1671624855.927,547,155412,87435
42707,9626.7939169,1671624855.927,547,155412,87435
42708,9626.80496625,1671624855.994,548,155445,87398
42708,9626.80496625,1671624855.994,548,155445,87398
42709,9626.8160156,1671624855.994,548,155491,87394
42709,9626.8160156,1671624855.994,548,155491,87394
42710,9626.827064950001,1671624855.994,545,155424,87410
42710,9626.827064950001,1671624855.994,545,155424,87410
42711,9626.8381143,1671624855.994,544,155400,87394
42711,9626.8381143,1671624855.994,544,155400,87394
42712,9626.84916365,1671624855.994,543,155313,87385
42712,9626.84916365,1671624855.994,543,155313,87385
42713,9626.860213,1671624855.994,546,155273,87349
42713,9626.860213,1671624855.994,546,155273,87349
42714,9626.875125866667,1671624856.083,545,155296,87354
42714,9626.875125866667,1671624856.083,545,155296,87354
42715,9626.890038733332,1671624856.083,548,155158,87311
42715,9626.890038733332,1671624856.083,548,155158,87311
42716,9626.9049516,1671624856.083,547,155181,87317
42716,9626.9049516,1671624856.083,547,155181,87317
42717,9626.919864466667,1671624856.083,545,155161,87279
42717,9626.919864466667,1671624856.083,545,155161,87279
42718,9626.934777333332,1671624856.083,544,155201,87315
42718,9626.934777333332,1671624856.083,544,155201,87315
42719,9626.9496902,1671624856.083,542,155194,87276
42719,9626.9496902,1671624856.083,542,155194,87276
42720,9626.965873649999,1671624856.18,543,155126,87241
42720,9626.965873649999,1671624856.18,543,155126,87241
42721,9626.9820571,1671624856.18,542,155107,87275
42721,9626.9820571,1671624856.18,542,155107,87275
42722,9626.99824055,1671624856.18,545,155155,87281
42722,9626.99824055,1671624856.18,545,155155,87281
42723,9627.014423999999,1671624856.18,545,155121,87274
42723,9627.014423999999,1671624856.18,545,155121,87274
42724,9627.03060745,1671624856.18,544,155146,87265
42724,9627.03060745,1671624856.18,544,155146,87265
42725,9627.0467909,1671624856.18,542,155177,87280
42725,9627.0467909,1671624856.18,542,155177,87280
42726,9627.0615775,1671624856.269,542,155302,87309
42726,9627.0615775,1671624856.269,542,155302,87309
42727,9627.0763641,1671624856.269,541,155206,87282
42727,9627.0763641,1671624856.269,541,155206,87282
42728,9627.0911507,1671624856.269,542,155207,87269
42728,9627.0911507,1671624856.269,542,155207,87269
42729,9627.1059373,1671624856.269,542,155159,87247
42729,9627.1059373,1671624856.269,542,155159,87247
42730,9627.1207239,1671624856.269,543,155166,87254
42730,9627.1207239,1671624856.269,543,155166,87254
42731,9627.1355105,1671624856.269,546,155148,87234
42731,9627.1355105,1671624856.269,546,155148,87234
42732,9627.15183785,1671624856.367,544,155213,87237
42732,9627.15183785,1671624856.367,544,155213,87237
42733,9627.1681652,1671624856.367,543,155160,87246
42733,9627.1681652,1671624856.367,543,155160,87246
42734,9627.18449255,1671624856.367,542,155222,87221
42734,9627.18449255,1671624856.367,542,155222,87221
42735,9627.2008199,1671624856.367,543,155152,87192
42735,9627.2008199,1671624856.367,543,155152,87192
42736,9627.21714725,1671624856.367,542,155160,87206
42736,9627.21714725,1671624856.367,542,155160,87206
42737,9627.2334746,1671624856.367,543,155178,87215
42737,9627.2334746,1671624856.367,543,155178,87215
42738,9627.249306633334,1671624856.462,543,155153,87206
42738,9627.249306633334,1671624856.462,543,155153,87206
42739,9627.265138666666,1671624856.462,546,155226,87222
42739,9627.265138666666,1671624856.462,546,155226,87222
42740,9627.2809707,1671624856.462,545,155201,87200
42740,9627.2809707,1671624856.462,545,155201,87200
42741,9627.296802733334,1671624856.462,544,155223,87206
42741,9627.296802733334,1671624856.462,544,155223,87206
42742,9627.312634766666,1671624856.462,542,155182,87208
42742,9627.312634766666,1671624856.462,542,155182,87208
42743,9627.3284668,1671624856.462,540,155352,87210
42743,9627.3284668,1671624856.462,540,155352,87210
42744,9627.343071566665,1671624856.549,541,155319,87217
42744,9627.343071566665,1671624856.549,541,155319,87217
42745,9627.357676333333,1671624856.549,542,155249,87201
42745,9627.357676333333,1671624856.549,542,155249,87201
42746,9627.3722811,1671624856.549,543,155248,87187
42746,9627.3722811,1671624856.549,543,155248,87187
42747,9627.386885866666,1671624856.549,544,155282,87201
42747,9627.386885866666,1671624856.549,544,155282,87201
42748,9627.401490633332,1671624856.549,544,155275,87207
42748,9627.401490633332,1671624856.549,544,155275,87207
42749,9627.4160954,1671624856.549,545,155247,87207
42749,9627.4160954,1671624856.549,545,155247,87207
42750,9627.431957,1671624856.645,543,155245,87198
42750,9627.431957,1671624856.645,543,155245,87198
42751,9627.4478186,1671624856.645,542,155274,87196
42751,9627.4478186,1671624856.645,542,155274,87196
42752,9627.463680199999,1671624856.645,541,155190,87191
42752,9627.463680199999,1671624856.645,541,155190,87191
42753,9627.4795418,1671624856.645,542,155149,87139
42753,9627.4795418,1671624856.645,542,155149,87139
42754,9627.4954034,1671624856.645,543,155153,87132
42754,9627.4954034,1671624856.645,543,155153,87132
42755,9627.511265,1671624856.645,544,155127,87125
42755,9627.511265,1671624856.645,544,155127,87125
42756,9627.526673433333,1671624856.737,543,155157,87131
42756,9627.526673433333,1671624856.737,543,155157,87131
42757,9627.542081866666,1671624856.737,544,155065,87105
42757,9627.542081866666,1671624856.737,544,155065,87105
42758,9627.5574903,1671624856.737,542,154985,87102
42758,9627.5574903,1671624856.737,542,154985,87102
42759,9627.572898733333,1671624856.737,540,155023,87080
42759,9627.572898733333,1671624856.737,540,155023,87080
42760,9627.588307166667,1671624856.737,541,155094,87090
42760,9627.588307166667,1671624856.737,541,155094,87090
42761,9627.6037156,1671624856.737,542,155090,87091
42761,9627.6037156,1671624856.737,542,155090,87091
42762,9627.6204286,1671624856.837,542,154958,87099
42762,9627.6204286,1671624856.837,542,154958,87099
42763,9627.6371416,1671624856.837,543,154996,87089
42763,9627.6371416,1671624856.837,543,154996,87089
42764,9627.653854600001,1671624856.837,542,155001,87071
42764,9627.653854600001,1671624856.837,542,155001,87071
42765,9627.6705676,1671624856.837,544,154989,87069
42765,9627.6705676,1671624856.837,544,154989,87069
42766,9627.6872806,1671624856.837,542,155018,87057
42766,9627.6872806,1671624856.837,542,155018,87057
42767,9627.7039936,1671624856.837,541,155045,87067
42767,9627.7039936,1671624856.837,541,155045,87067
42768,9627.720895233333,1671624856.939,541,155071,87059
42768,9627.720895233333,1671624856.939,541,155071,87059
42769,9627.737796866666,1671624856.939,543,155010,87069
42769,9627.737796866666,1671624856.939,543,155010,87069
42770,9627.7546985,1671624856.939,541,154949,87055
42770,9627.7546985,1671624856.939,541,154949,87055
42771,9627.771600133334,1671624856.939,543,155044,87041
42771,9627.771600133334,1671624856.939,543,155044,87041
42772,9627.788501766667,1671624856.939,542,154979,87042
42772,9627.788501766667,1671624856.939,542,154979,87042
42773,9627.8054034,1671624856.939,542,155011,87049
42773,9627.8054034,1671624856.939,542,155011,87049
42774,9627.817344449999,1671624857.01,541,154999,87032
42774,9627.817344449999,1671624857.01,541,154999,87032
42775,9627.8292855,1671624857.01,540,154922,87025
42775,9627.8292855,1671624857.01,540,154922,87025
42776,9627.841226550001,1671624857.01,541,154978,87018
42776,9627.841226550001,1671624857.01,541,154978,87018
42777,9627.8531676,1671624857.01,543,155032,86999
42777,9627.8531676,1671624857.01,543,155032,86999
42778,9627.86510865,1671624857.01,543,155086,87040
42778,9627.86510865,1671624857.01,543,155086,87040
42779,9627.8770497,1671624857.01,543,155044,87037
42779,9627.8770497,1671624857.01,543,155044,87037
42780,9627.8934178,1671624857.109,541,155098,87021
42780,9627.8934178,1671624857.109,541,155098,87021
42781,9627.909785900001,1671624857.109,542,155054,87017
42781,9627.909785900001,1671624857.109,542,155054,87017
42782,9627.926154,1671624857.109,540,155011,87035
42782,9627.926154,1671624857.109,540,155011,87035
42783,9627.9425221,1671624857.109,538,155153,87041
42783,9627.9425221,1671624857.109,538,155153,87041
42784,9627.958890200001,1671624857.109,541,155093,87051
42784,9627.958890200001,1671624857.109,541,155093,87051
42785,9627.9752583,1671624857.109,542,155072,87027
42785,9627.9752583,1671624857.109,542,155072,87027
42786,9627.992130616667,1671624857.21,541,155174,87056
42786,9627.992130616667,1671624857.21,541,155174,87056
42787,9628.009002933333,1671624857.21,543,155103,87020
42787,9628.009002933333,1671624857.21,543,155103,87020
42788,9628.025875250001,1671624857.21,542,155127,87031
42788,9628.025875250001,1671624857.21,542,155127,87031
42789,9628.042747566667,1671624857.21,543,155241,87051
42789,9628.042747566667,1671624857.21,543,155241,87051
42790,9628.059619883334,1671624857.21,542,155157,87042
42790,9628.059619883334,1671624857.21,542,155157,87042
42791,9628.0764922,1671624857.21,540,155103,87025
42791,9628.0764922,1671624857.21,540,155103,87025
42792,9628.092323683333,1671624857.305,542,155232,87028
42792,9628.092323683333,1671624857.305,542,155232,87028
42793,9628.108155166667,1671624857.305,543,155263,87035
42793,9628.108155166667,1671624857.305,543,155263,87035
42794,9628.12398665,1671624857.305,544,155155,87032
42794,9628.12398665,1671624857.305,544,155155,87032
42795,9628.139818133333,1671624857.305,544,155125,86992
42795,9628.139818133333,1671624857.305,544,155125,86992
42796,9628.155649616667,1671624857.305,542,155046,86955
42796,9628.155649616667,1671624857.305,542,155046,86955
42797,9628.1714811,1671624857.305,541,154874,86953
42797,9628.1714811,1671624857.305,541,154874,86953
42798,9628.185643166667,1671624857.39,541,154855,86925
42798,9628.185643166667,1671624857.39,541,154855,86925
42799,9628.199805233333,1671624857.39,539,154834,86933
42799,9628.199805233333,1671624857.39,539,154834,86933
42800,9628.2139673,1671624857.39,541,154839,86930
42800,9628.2139673,1671624857.39,541,154839,86930
42801,9628.228129366667,1671624857.39,541,154811,86924
42801,9628.228129366667,1671624857.39,541,154811,86924
42802,9628.242291433333,1671624857.39,543,154839,86903
42802,9628.242291433333,1671624857.39,543,154839,86903
42803,9628.2564535,1671624857.39,543,154861,86924
42803,9628.2564535,1671624857.39,543,154861,86924
42804,9628.27326705,1671624857.491,542,154831,86914
42804,9628.27326705,1671624857.491,542,154831,86914
42805,9628.2900806,1671624857.491,541,154839,86940
42805,9628.2900806,1671624857.491,541,154839,86940
42806,9628.30689415,1671624857.491,541,154843,86866
42806,9628.30689415,1671624857.491,541,154843,86866
42807,9628.323707700001,1671624857.491,539,154901,86901
42807,9628.323707700001,1671624857.491,539,154901,86901
42808,9628.34052125,1671624857.491,541,154796,86906
42808,9628.34052125,1671624857.491,541,154796,86906
42809,9628.3573348,1671624857.491,541,154849,86924
42809,9628.3573348,1671624857.491,541,154849,86924
42810,9628.374363333334,1671624857.593,543,154991,86925
42810,9628.374363333334,1671624857.593,543,154991,86925
42811,9628.391391866668,1671624857.593,543,154879,86882
42811,9628.391391866668,1671624857.593,543,154879,86882
42812,9628.4084204,1671624857.593,543,154863,86905
42812,9628.4084204,1671624857.593,543,154863,86905
42813,9628.425448933333,1671624857.593,542,154841,86875
42813,9628.425448933333,1671624857.593,542,154841,86875
42814,9628.442477466666,1671624857.593,541,154864,86895
42814,9628.442477466666,1671624857.593,541,154864,86895
42815,9628.459506,1671624857.593,540,154867,86879
42815,9628.459506,1671624857.593,540,154867,86879
42816,9628.4745444,1671624857.683,542,154888,86881
42816,9628.4745444,1671624857.683,542,154888,86881
42817,9628.489582799999,1671624857.683,543,154748,86869
42817,9628.489582799999,1671624857.683,543,154748,86869
42818,9628.5046212,1671624857.683,544,154851,86863
42818,9628.5046212,1671624857.683,544,154851,86863
42819,9628.5196596,1671624857.683,542,154875,86843
42819,9628.5196596,1671624857.683,542,154875,86843
42820,9628.534698,1671624857.683,541,154875,86861
42820,9628.534698,1671624857.683,541,154875,86861
42821,9628.5497364,1671624857.683,541,154862,86856
42821,9628.5497364,1671624857.683,541,154862,86856
42822,9628.56240575,1671624857.759,540,154772,86884
42822,9628.56240575,1671624857.759,540,154772,86884
42823,9628.5750751,1671624857.759,540,154877,86831
42823,9628.5750751,1671624857.759,540,154877,86831
42824,9628.58774445,1671624857.759,540,154870,86861
42824,9628.58774445,1671624857.759,540,154870,86861
42825,9628.6004138,1671624857.759,540,154951,86886
42825,9628.6004138,1671624857.759,540,154951,86886
42826,9628.61308315,1671624857.759,543,154843,86841
42826,9628.61308315,1671624857.759,543,154843,86841
42827,9628.6257525,1671624857.759,543,154891,86853
42827,9628.6257525,1671624857.759,543,154891,86853
42828,9628.642676316667,1671624857.861,541,154913,86866
42828,9628.642676316667,1671624857.861,541,154913,86866
42829,9628.659600133333,1671624857.861,542,154937,86878
42829,9628.659600133333,1671624857.861,542,154937,86878
42830,9628.67652395,1671624857.861,540,154961,86861
42830,9628.67652395,1671624857.861,540,154961,86861
42831,9628.693447766667,1671624857.861,540,154977,86888
42831,9628.693447766667,1671624857.861,540,154977,86888
42832,9628.710371583333,1671624857.861,542,154965,86856
42832,9628.710371583333,1671624857.861,542,154965,86856
42833,9628.7272954,1671624857.861,541,154977,86866
42833,9628.7272954,1671624857.861,541,154977,86866
42834,9628.74376015,1671624857.959,544,154988,86856
42834,9628.74376015,1671624857.959,544,154988,86856
42835,9628.7602249,1671624857.959,542,154990,86913
42835,9628.7602249,1671624857.959,542,154990,86913
42836,9628.77668965,1671624857.959,543,155062,86869
42836,9628.77668965,1671624857.959,543,155062,86869
42837,9628.7931544,1671624857.959,543,155022,86860
42837,9628.7931544,1671624857.959,543,155022,86860
42838,9628.809619149999,1671624857.959,540,155001,86859
42838,9628.809619149999,1671624857.959,540,155001,86859
42839,9628.8260839,1671624857.959,541,154991,86851
42839,9628.8260839,1671624857.959,541,154991,86851
42840,9628.8419149,1671624858.054,542,155105,86886
42840,9628.8419149,1671624858.054,542,155105,86886
42841,9628.857745899999,1671624858.054,543,155027,86844
42841,9628.857745899999,1671624858.054,543,155027,86844
42842,9628.8735769,1671624858.054,544,154974,86834
42842,9628.8735769,1671624858.054,544,154974,86834
42843,9628.8894079,1671624858.054,543,154830,86797
42843,9628.8894079,1671624858.054,543,154830,86797
42844,9628.905238899999,1671624858.054,542,154811,86813
42844,9628.905238899999,1671624858.054,542,154811,86813
42845,9628.9210699,1671624858.054,541,154758,86795
42845,9628.9210699,1671624858.054,541,154758,86795
42846,9628.936019183333,1671624858.144,540,154641,86773
42846,9628.936019183333,1671624858.144,540,154641,86773
42847,9628.950968466666,1671624858.144,539,154819,86789
42847,9628.950968466666,1671624858.144,539,154819,86789
42848,9628.96591775,1671624858.144,541,154779,86774
42848,9628.96591775,1671624858.144,541,154779,86774
42849,9628.980867033333,1671624858.144,541,154797,86767
42849,9628.980867033333,1671624858.144,541,154797,86767
42850,9628.995816316667,1671624858.144,544,154705,86753
42850,9628.995816316667,1671624858.144,544,154705,86753
42851,9629.0107656,1671624858.144,541,154744,86759
42851,9629.0107656,1671624858.144,541,154744,86759
42852,9629.024790783333,1671624858.228,540,154744,86761
42852,9629.024790783333,1671624858.228,540,154744,86761
42853,9629.038815966667,1671624858.228,542,154721,86762
42853,9629.038815966667,1671624858.228,542,154721,86762
42854,9629.05284115,1671624858.228,541,154722,86770
42854,9629.05284115,1671624858.228,541,154722,86770
42855,9629.066866333333,1671624858.228,540,154744,86758
42855,9629.066866333333,1671624858.228,540,154744,86758
42856,9629.080891516667,1671624858.228,540,154699,86734
42856,9629.080891516667,1671624858.228,540,154699,86734
42857,9629.0949167,1671624858.228,540,154643,86747
42857,9629.0949167,1671624858.228,540,154643,86747
42858,9629.11282695,1671624858.336,543,154643,86727
42858,9629.11282695,1671624858.336,543,154643,86727
42859,9629.1307372,1671624858.336,540,154667,86724
42859,9629.1307372,1671624858.336,540,154667,86724
42860,9629.14864745,1671624858.336,542,154687,86743
42860,9629.14864745,1671624858.336,542,154687,86743
42861,9629.1665577,1671624858.336,539,154738,86734
42861,9629.1665577,1671624858.336,539,154738,86734
42862,9629.184467949999,1671624858.336,540,154607,86715
42862,9629.184467949999,1671624858.336,540,154607,86715
42863,9629.2023782,1671624858.336,539,154649,86712
42863,9629.2023782,1671624858.336,539,154649,86712
42864,9629.220199466667,1671624858.443,540,154726,86713
42864,9629.220199466667,1671624858.443,540,154726,86713
42865,9629.238020733334,1671624858.443,541,154578,86706
42865,9629.238020733334,1671624858.443,541,154578,86706
42866,9629.255841999999,1671624858.443,541,154624,86689
42866,9629.255841999999,1671624858.443,541,154624,86689
42867,9629.273663266666,1671624858.443,541,154580,86681
42867,9629.273663266666,1671624858.443,541,154580,86681
42868,9629.291484533333,1671624858.443,540,154754,86717
42868,9629.291484533333,1671624858.443,540,154754,86717
42869,9629.3093058,1671624858.443,540,154686,86712
42869,9629.3093058,1671624858.443,540,154686,86712
42870,9629.321283833333,1671624858.514,540,154721,86722
42870,9629.321283833333,1671624858.514,540,154721,86722
42871,9629.333261866666,1671624858.514,539,154655,86694
42871,9629.333261866666,1671624858.514,539,154655,86694
42872,9629.3452399,1671624858.514,540,154599,86682
42872,9629.3452399,1671624858.514,540,154599,86682
42873,9629.357217933333,1671624858.514,543,154639,86687
42873,9629.357217933333,1671624858.514,543,154639,86687
42874,9629.369195966667,1671624858.514,544,154615,86678
42874,9629.369195966667,1671624858.514,544,154615,86678
42875,9629.381174,1671624858.514,542,154696,86674
42875,9629.381174,1671624858.514,542,154696,86674
42876,9629.397198133334,1671624858.611,543,154664,86678
42876,9629.397198133334,1671624858.611,543,154664,86678
42877,9629.413222266667,1671624858.611,541,154709,86692
42877,9629.413222266667,1671624858.611,541,154709,86692
42878,9629.4292464,1671624858.611,540,154736,86683
42878,9629.4292464,1671624858.611,540,154736,86683
42879,9629.445270533333,1671624858.611,539,154780,86695
42879,9629.445270533333,1671624858.611,539,154780,86695
42880,9629.461294666668,1671624858.611,541,154721,86671
42880,9629.461294666668,1671624858.611,541,154721,86671
42881,9629.4773188,1671624858.611,540,154768,86689
42881,9629.4773188,1671624858.611,540,154768,86689
42882,9629.494084366666,1671624858.711,545,154749,86654
42882,9629.494084366666,1671624858.711,545,154749,86654
42883,9629.510849933333,1671624858.711,542,154744,86700
42883,9629.510849933333,1671624858.711,542,154744,86700
42884,9629.5276155,1671624858.711,542,154824,86692
42884,9629.5276155,1671624858.711,542,154824,86692
42885,9629.544381066667,1671624858.711,539,154863,86689
42885,9629.544381066667,1671624858.711,539,154863,86689
42886,9629.561146633334,1671624858.711,540,154842,86670
42886,9629.561146633334,1671624858.711,540,154842,86670
42887,9629.5779122,1671624858.711,539,154837,86667
42887,9629.5779122,1671624858.711,539,154837,86667
42888,9629.59836815,1671624858.834,541,154778,86635
42888,9629.59836815,1671624858.834,541,154778,86635
42889,9629.6188241,1671624858.834,542,154729,86636
42889,9629.6188241,1671624858.834,542,154729,86636
42890,9629.63928005,1671624858.834,543,154587,86620
42890,9629.63928005,1671624858.834,543,154587,86620
42891,9629.659736,1671624858.834,541,154503,86620
42891,9629.659736,1671624858.834,541,154503,86620
42892,9629.68019195,1671624858.834,541,154467,86581
42892,9629.68019195,1671624858.834,541,154467,86581
42893,9629.7006479,1671624858.834,541,154485,86573
42893,9629.7006479,1671624858.834,541,154485,86573
42894,9629.7107385,1671624858.895,539,154380,86541
42894,9629.7107385,1671624858.895,539,154380,86541
42895,9629.720829099999,1671624858.895,538,154507,86572
42895,9629.720829099999,1671624858.895,538,154507,86572
42896,9629.7309197,1671624858.895,539,154395,86582
42896,9629.7309197,1671624858.895,539,154395,86582
42897,9629.7410103,1671624858.895,540,154392,86554
42897,9629.7410103,1671624858.895,540,154392,86554
42898,9629.751100899999,1671624858.895,542,154399,86551
42898,9629.751100899999,1671624858.895,542,154399,86551
42899,9629.7611915,1671624858.895,540,154385,86522
42899,9629.7611915,1671624858.895,540,154385,86522
42900,9629.775948166667,1671624858.983,541,154351,86543
42900,9629.775948166667,1671624858.983,541,154351,86543
42901,9629.790704833333,1671624858.983,537,154408,86544
42901,9629.790704833333,1671624858.983,537,154408,86544
42902,9629.8054615,1671624858.983,536,154404,86544
42902,9629.8054615,1671624858.983,536,154404,86544
42903,9629.820218166667,1671624858.983,539,154279,86530
42903,9629.820218166667,1671624858.983,539,154279,86530
42904,9629.834974833333,1671624858.983,540,154322,86516
42904,9629.834974833333,1671624858.983,540,154322,86516
42905,9629.8497315,1671624858.983,542,154335,86490
42905,9629.8497315,1671624858.983,542,154335,86490
42906,9629.866524066667,1671624859.084,540,154410,86517
42906,9629.866524066667,1671624859.084,540,154410,86517
42907,9629.883316633333,1671624859.084,540,154310,86497
42907,9629.883316633333,1671624859.084,540,154310,86497
42908,9629.9001092,1671624859.084,541,154332,86458
42908,9629.9001092,1671624859.084,541,154332,86458
42909,9629.916901766666,1671624859.084,538,154268,86485
42909,9629.916901766666,1671624859.084,538,154268,86485
42910,9629.933694333333,1671624859.084,538,154294,86456
42910,9629.933694333333,1671624859.084,538,154294,86456
42911,9629.9504869,1671624859.084,538,154266,86457
42911,9629.9504869,1671624859.084,538,154266,86457
42912,9629.96546905,1671624859.174,538,154189,86458
42912,9629.96546905,1671624859.174,538,154189,86458
42913,9629.9804512,1671624859.174,538,154289,86465
42913,9629.9804512,1671624859.174,538,154289,86465
42914,9629.995433349999,1671624859.174,539,154221,86450
42914,9629.995433349999,1671624859.174,539,154221,86450
42915,9630.0104155,1671624859.174,539,154184,86445
42915,9630.0104155,1671624859.174,539,154184,86445
42916,9630.02539765,1671624859.174,541,154243,86456
42916,9630.02539765,1671624859.174,541,154243,86456
42917,9630.0403798,1671624859.174,540,154297,86420
42917,9630.0403798,1671624859.174,540,154297,86420
42918,9630.060026566667,1671624859.292,538,154257,86410
42918,9630.060026566667,1671624859.292,538,154257,86410
42919,9630.079673333334,1671624859.292,538,154293,86450
42919,9630.079673333334,1671624859.292,538,154293,86450
42920,9630.0993201,1671624859.292,540,154310,86411
42920,9630.0993201,1671624859.292,540,154310,86411
42921,9630.118966866667,1671624859.292,540,154397,86441
42921,9630.118966866667,1671624859.292,540,154397,86441
42922,9630.138613633333,1671624859.292,541,154349,86416
42922,9630.138613633333,1671624859.292,541,154349,86416
42923,9630.1582604,1671624859.292,539,154268,86405
42923,9630.1582604,1671624859.292,539,154268,86405
42924,9630.16900305,1671624859.356,539,154265,86408
42924,9630.16900305,1671624859.356,539,154265,86408
42925,9630.1797457,1671624859.356,537,154296,86401
42925,9630.1797457,1671624859.356,537,154296,86401
42926,9630.19048835,1671624859.356,538,154315,86417
42926,9630.19048835,1671624859.356,538,154315,86417
42927,9630.201231000001,1671624859.356,537,154386,86416
42927,9630.201231000001,1671624859.356,537,154386,86416
42928,9630.21197365,1671624859.356,537,154417,86397
42928,9630.21197365,1671624859.356,537,154417,86397
42929,9630.2227163,1671624859.356,540,154315,86409
42929,9630.2227163,1671624859.356,540,154315,86409
42930,9630.238857616667,1671624859.453,541,154377,86365
42930,9630.238857616667,1671624859.453,541,154377,86365
42931,9630.254998933333,1671624859.453,539,154375,86397
42931,9630.254998933333,1671624859.453,539,154375,86397
42932,9630.271140249999,1671624859.453,538,154472,86396
42932,9630.271140249999,1671624859.453,538,154472,86396
42933,9630.287281566667,1671624859.453,536,154401,86373
42933,9630.287281566667,1671624859.453,536,154401,86373
42934,9630.303422883333,1671624859.453,538,154453,86397
42934,9630.303422883333,1671624859.453,538,154453,86397
42935,9630.3195642,1671624859.453,538,154383,86387
42935,9630.3195642,1671624859.453,538,154383,86387
42936,9630.33682515,1671624859.556,537,154291,86384
42936,9630.33682515,1671624859.556,537,154291,86384
42937,9630.3540861,1671624859.556,539,154444,86421
42937,9630.3540861,1671624859.556,539,154444,86421
42938,9630.37134705,1671624859.556,539,154419,86381
42938,9630.37134705,1671624859.556,539,154419,86381
42939,9630.388608,1671624859.556,538,154446,86390
42939,9630.388608,1671624859.556,538,154446,86390
42940,9630.40586895,1671624859.556,540,154407,86388
42940,9630.40586895,1671624859.556,540,154407,86388
42941,9630.4231299,1671624859.556,537,154308,86342
42941,9630.4231299,1671624859.556,537,154308,86342
42942,9630.4382135,1671624859.647,537,154223,86313
42942,9630.4382135,1671624859.647,537,154223,86313
42943,9630.4532971,1671624859.647,538,154156,86320
42943,9630.4532971,1671624859.647,538,154156,86320
42944,9630.4683807,1671624859.647,539,154118,86320
42944,9630.4683807,1671624859.647,539,154118,86320
42945,9630.4834643,1671624859.647,541,154043,86263
42945,9630.4834643,1671624859.647,541,154043,86263
42946,9630.4985479,1671624859.647,539,154110,86276
42946,9630.4985479,1671624859.647,539,154110,86276
42947,9630.5136315,1671624859.647,539,154029,86268
42947,9630.5136315,1671624859.647,539,154029,86268
42948,9630.528612883334,1671624859.737,539,153901,86257
42948,9630.528612883334,1671624859.737,539,153901,86257
42949,9630.543594266666,1671624859.737,536,153960,86229
42949,9630.543594266666,1671624859.737,536,153960,86229
42950,9630.55857565,1671624859.737,538,153955,86211
42950,9630.55857565,1671624859.737,538,153955,86211
42951,9630.573557033335,1671624859.737,538,153924,86203
42951,9630.573557033335,1671624859.737,538,153924,86203
42952,9630.582693154973,1671624859.737,539,153947,86206
42952,9630.589718819061,1671624859.737,539,153947,86206
42953,9630.59674448315,1671624859.737,541,153816,86172
42953,9630.603770147238,1671624859.737,541,153816,86172
42954,9630.610795811326,1671624859.834,539,153917,86157
42954,9630.617821475415,1671624859.834,539,153917,86157
42955,9630.624847139503,1671624859.834,539,153707,86133
42955,9630.631872803591,1671624859.834,539,153707,86133
42956,9630.63889846768,1671624859.834,540,153867,86156
42956,9630.645924131768,1671624859.834,540,153867,86156
42957,9630.652949795856,1671624859.834,538,153798,86135
42957,9630.659975459945,1671624859.834,538,153798,86135
42958,9630.667001124033,1671624859.834,538,153809,86139
42958,9630.674026788121,1671624859.834,538,153809,86139
42959,9630.68105245221,1671624859.834,538,153836,86128
42959,9630.688078116298,1671624859.834,538,153836,86128
42960,9630.695103780386,1671624859.93,539,153722,86099
42960,9630.702129444475,1671624859.93,539,153722,86099
42961,9630.709155108563,1671624859.93,540,153765,86097
42961,9630.716180772652,1671624859.93,540,153765,86097
42962,9630.74233311577,1671624859.93,541,153759,86060
42962,9630.74985548022,1671624859.93,541,153759,86060
42963,9630.757377844671,1671624859.93,538,153836,86093
42963,9630.764900209122,1671624859.93,538,153836,86093
42964,9630.772422573573,1671624859.93,539,153746,86075
42964,9630.779944938024,1671624859.93,539,153746,86075
42965,9630.787467302474,1671624859.93,538,153752,86058
42965,9630.794989666925,1671624859.93,538,153752,86058
42966,9630.802512031376,1671624860.031,538,153724,86070
42966,9630.810034395827,1671624860.031,538,153724,86070
42967,9630.817556760278,1671624860.031,538,153760,86044
42967,9630.825079124728,1671624860.031,538,153760,86044
42968,9630.832601489179,1671624860.031,537,153723,86058
42968,9630.84012385363,1671624860.031,537,153723,86058
42969,9630.84764621808,1671624860.031,540,153849,86093
42969,9630.855168582531,1671624860.031,540,153849,86093
42970,9630.862690946982,1671624860.031,541,153836,86059
42970,9630.870213311433,1671624860.031,541,153836,86059
42971,9630.877735675884,1671624860.031,538,153723,86064
42971,9630.885258040335,1671624860.031,538,153723,86064
42972,9630.907698306693,1671624860.114,540,153764,86051
42972,9630.915578739969,1671624860.114,540,153764,86051
42973,9630.923459173244,1671624860.114,537,153868,86081
42973,9630.931339606519,1671624860.114,537,153868,86081
42974,9630.939220039794,1671624860.114,537,153816,86064
42974,9630.94710047307,1671624860.114,537,153816,86064
42975,9630.954980906345,1671624860.114,538,153884,86061
42975,9630.96286133962,1671624860.114,538,153884,86061
42976,9630.970741772895,1671624860.114,541,153875,86055
42976,9630.97862220617,1671624860.114,541,153875,86055
42977,9630.986502639445,1671624860.114,540,153877,86028
42977,9630.99438307272,1671624860.114,540,153877,86028
42978,9631.002263505996,1671624860.215,540,153865,86029
42978,9631.010143939271,1671624860.215,540,153865,86029
42979,9631.018024372546,1671624860.215,541,153830,86045
42979,9631.025904805821,1671624860.215,541,153830,86045
42980,9631.033785239097,1671624860.215,539,153832,86043
42980,9631.041665672372,1671624860.215,539,153832,86043
42981,9631.049546105647,1671624860.215,538,153806,86037
42981,9631.057426538922,1671624860.215,538,153806,86037
42982,9631.058584340224,1671624860.215,539,153935,86025
42982,9631.066397264625,1671624860.215,539,153935,86025
42983,9631.074210189026,1671624860.215,542,153911,86034
42983,9631.082023113428,1671624860.215,542,153911,86034
42984,9631.089836037829,1671624860.3,540,154005,86062
42984,9631.09764896223,1671624860.3,540,154005,86062
42985,9631.105461886631,1671624860.3,541,153926,86021
42985,9631.113274811032,1671624860.3,541,153926,86021
42986,9631.121087735433,1671624860.3,540,153948,86049
42986,9631.128900659834,1671624860.3,540,153948,86049
42987,9631.136713584236,1671624860.3,539,153949,86021
42987,9631.144526508637,1671624860.3,539,153949,86021
42988,9631.152339433038,1671624860.3,539,153938,86042
42988,9631.160152357439,1671624860.3,539,153938,86042
42989,9631.16796528184,1671624860.3,537,154006,86037
42989,9631.175778206241,1671624860.3,537,154006,86037
42990,9631.183591130643,1671624860.388,539,153955,86020
42990,9631.191404055044,1671624860.388,539,153955,86020
42991,9631.199216979445,1671624860.388,538,154026,86037
42991,9631.207029903846,1671624860.388,538,154026,86037
42992,9631.20483641617,1671624860.388,539,154056,86038
42992,9631.211661257657,1671624860.388,539,154056,86038
42993,9631.218486099146,1671624860.388,541,153936,86026
42993,9631.225310940634,1671624860.388,541,153936,86026
42994,9631.232135782122,1671624860.388,541,154030,86031
42994,9631.23896062361,1671624860.388,541,154030,86031
42995,9631.245785465098,1671624860.388,542,153916,86010
42995,9631.252610306587,1671624860.388,542,153916,86010
42996,9631.259435148075,1671624860.485,540,153844,85962
42996,9631.266259989563,1671624860.485,540,153844,85962
42997,9631.273084831051,1671624860.485,538,153815,85941
42997,9631.27990967254,1671624860.485,538,153815,85941
42998,9631.286734514028,1671624860.485,539,153734,85933
42998,9631.293559355516,1671624860.485,539,153734,85933
42999,9631.300384197004,1671624860.485,538,153763,85919
42999,9631.307209038492,1671624860.485,538,153763,85919
43000,9631.31403387998,1671624860.485,539,153641,85894
43000,9631.320858721469,1671624860.485,539,153641,85894
43001,9631.327683562957,1671624860.485,542,153594,85895
43001,9631.334508404445,1671624860.485,542,153594,85895
43002,9631.361728224683,1671624860.582,539,153543,85867
43002,9631.369285600704,1671624860.582,539,153543,85867
43003,9631.376842976724,1671624860.582,540,153623,85886
43003,9631.384400352745,1671624860.582,540,153623,85886
43004,9631.391957728765,1671624860.582,539,153582,85891
43004,9631.399515104786,1671624860.582,539,153582,85891
43005,9631.407072480806,1671624860.582,537,153603,85879
43005,9631.414629856827,1671624860.582,537,153603,85879
43006,9631.422187232847,1671624860.582,536,153638,85873
43006,9631.429744608868,1671624860.582,536,153638,85873
43007,9631.437301984888,1671624860.582,537,153556,85866
43007,9631.444859360909,1671624860.582,537,153556,85866
43008,9631.452416736929,1671624860.675,537,153451,85870
43008,9631.45997411295,1671624860.675,537,153451,85870
43009,9631.46753148897,1671624860.675,539,153566,85871
43009,9631.47508886499,1671624860.675,539,153566,85871
43010,9631.482646241011,1671624860.675,539,153533,85840
43010,9631.490203617032,1671624860.675,539,153533,85840
43011,9631.497760993052,1671624860.675,539,153522,85875
43011,9631.505318369072,1671624860.675,539,153522,85875
43012,9631.519919638564,1671624860.675,538,153580,85856
43012,9631.527151637998,1671624860.675,538,153580,85856
43013,9631.534383637432,1671624860.675,537,153627,85865
43013,9631.541615636866,1671624860.675,537,153627,85865
43014,9631.5488476363,1671624860.769,537,153489,85815
43014,9631.556079635735,1671624860.769,537,153489,85815
43015,9631.56331163517,1671624860.769,541,153459,85826
43015,9631.570543634603,1671624860.769,541,153459,85826
43016,9631.577775634038,1671624860.769,540,153539,85839
43016,9631.585007633472,1671624860.769,540,153539,85839
43017,9631.592239632906,1671624860.769,541,153608,85835
43017,9631.59947163234,1671624860.769,541,153608,85835
43018,9631.606703631775,1671624860.769,539,153509,85820
43018,9631.613935631209,1671624860.769,539,153509,85820
43019,9631.621167630643,1671624860.769,541,153490,85785
43019,9631.628399630077,1671624860.769,541,153490,85785
43020,9631.635631629511,1671624860.859,539,153430,85779
43020,9631.642863628946,1671624860.859,539,153430,85779
43021,9631.65009562838,1671624860.859,537,153434,85787
43021,9631.657327627814,1671624860.859,537,153434,85787
43022,9631.675139683293,1671624860.859,538,153503,85776
43022,9631.682263848972,1671624860.859,538,153503,85776
43023,9631.68938801465,1671624860.859,538,153598,85776
43023,9631.69651218033,1671624860.859,538,153598,85776
43024,9631.703636346008,1671624860.859,539,153492,85791
43024,9631.710760511687,1671624860.859,539,153492,85791
43025,9631.717884677366,1671624860.859,540,153516,85769
43025,9631.725008843045,1671624860.859,540,153516,85769
43026,9631.732133008723,1671624860.952,540,153501,85773
43026,9631.739257174402,1671624860.952,540,153501,85773
43027,9631.746381340081,1671624860.952,541,153485,85737
43027,9631.75350550576,1671624860.952,541,153485,85737
43028,9631.760629671438,1671624860.952,538,153548,85753
43028,9631.767753837117,1671624860.952,538,153548,85753
43029,9631.774878002796,1671624860.952,536,153619,85793
43029,9631.782002168475,1671624860.952,536,153619,85793
43030,9631.789126334153,1671624860.952,537,153600,85790
43030,9631.796250499832,1671624860.952,537,153600,85790
43031,9631.803374665511,1671624860.952,539,153678,85803
43031,9631.81049883119,1671624860.952,539,153678,85803
43032,9631.827653415072,1671624861.043,537,153680,85798
43032,9631.834886522287,1671624861.043,537,153680,85798
43033,9631.842119629502,1671624861.043,540,153600,85791
43033,9631.849352736717,1671624861.043,540,153600,85791
43034,9631.856585843932,1671624861.043,538,153602,85808
43034,9631.863818951148,1671624861.043,538,153602,85808
43035,9631.871052058363,1671624861.043,536,153646,85800
43035,9631.878285165578,1671624861.043,536,153646,85800
43036,9631.885518272793,1671624861.043,536,153804,85849
43036,9631.892751380008,1671624861.043,536,153804,85849
43037,9631.899984487223,1671624861.043,534,153823,85867
43037,9631.907217594438,1671624861.043,534,153823,85867
43038,9631.914450701654,1671624861.135,534,153822,85893
43038,9631.921683808869,1671624861.135,534,153822,85893
43039,9631.928916916084,1671624861.135,534,153788,85908
43039,9631.936150023299,1671624861.135,534,153788,85908
43040,9631.943383130514,1671624861.135,536,153812,85930
43040,9631.95061623773,1671624861.135,536,153812,85930
43041,9631.957849344944,1671624861.135,538,153931,85934
43041,9631.96508245216,1671624861.135,538,153931,85934
43042,9631.980301195268,1671624861.135,535,154092,85984
43042,9631.987475368844,1671624861.135,535,154092,85984
43043,9631.99464954242,1671624861.135,537,154033,85983
43043,9632.001823715995,1671624861.135,537,154033,85983
43044,9632.00899788957,1671624861.239,535,154045,85982
43044,9632.016172063146,1671624861.239,535,154045,85982
43045,9632.023346236721,1671624861.239,533,154093,85988
43045,9632.030520410297,1671624861.239,533,154093,85988
43046,9632.037694583873,1671624861.239,533,154074,85984
43046,9632.044868757448,1671624861.239,533,154074,85984
43047,9632.052042931024,1671624861.239,534,154058,85979
43047,9632.0592171046,1671624861.239,534,154058,85979
43048,9632.066391278175,1671624861.239,534,154138,85985
43048,9632.07356545175,1671624861.239,534,154138,85985
43049,9632.080739625326,1671624861.239,535,154137,85986
43049,9632.087913798901,1671624861.239,535,154137,85986
43050,9632.095087972477,1671624861.325,534,154144,85991
43050,9632.102262146052,1671624861.325,534,154144,85991
43051,9632.109436319628,1671624861.325,534,154031,85958
43051,9632.116610493204,1671624861.325,534,154031,85958
43052,9632.144067217878,1671624861.325,532,154014,85961
43052,9632.151193277808,1671624861.325,532,154014,85961
43053,9632.15831933774,1671624861.325,532,153977,85958
43053,9632.16544539767,1671624861.325,532,153977,85958
43054,9632.1725714576,1671624861.325,531,153893,85976
43054,9632.179697517531,1671624861.325,531,153893,85976
43055,9632.186823577462,1671624861.325,534,153806,85943
43055,9632.193949637393,1671624861.325,534,153806,85943
43056,9632.201075697323,1671624861.416,533,153753,85932
43056,9632.208201757254,1671624861.416,533,153753,85932
43057,9632.215327817185,1671624861.416,535,153821,85945
43057,9632.222453877115,1671624861.416,535,153821,85945
43058,9632.229579937046,1671624861.416,533,153822,85955
43058,9632.236705996977,1671624861.416,533,153822,85955
43059,9632.243832056907,1671624861.416,535,153733,85942
43059,9632.250958116838,1671624861.416,535,153733,85942
43060,9632.258084176769,1671624861.416,533,153730,85935
43060,9632.2652102367,1671624861.416,533,153730,85935
43061,9632.27233629663,1671624861.416,532,153800,85924
43061,9632.27946235656,1671624861.416,532,153800,85924
43062,9632.292243653621,1671624861.507,533,153764,85916
43062,9632.299372464986,1671624861.507,533,153764,85916
43063,9632.30650127635,1671624861.507,533,153808,85932
43063,9632.313630087716,1671624861.507,533,153808,85932
43064,9632.32075889908,1671624861.507,534,153832,85916
43064,9632.327887710446,1671624861.507,534,153832,85916
43065,9632.33501652181,1671624861.507,534,153782,85938
43065,9632.342145333176,1671624861.507,534,153782,85938
43066,9632.34927414454,1671624861.507,533,153734,85934
43066,9632.356402955906,1671624861.507,533,153734,85934
43067,9632.36353176727,1671624861.507,534,153839,85925
43067,9632.370660578636,1671624861.507,534,153839,85925
43068,9632.37778939,1671624861.606,530,153834,85939
43068,9632.384918201366,1671624861.606,530,153834,85939
43069,9632.39204701273,1671624861.606,531,153783,85950
43069,9632.399175824095,1671624861.606,531,153783,85950
43070,9632.40630463546,1671624861.606,532,153755,85942
43070,9632.413433446825,1671624861.606,532,153755,85942
43071,9632.42056225819,1671624861.606,533,153762,85914
43071,9632.427691069555,1671624861.606,533,153762,85914
43072,9632.449909293382,1671624861.606,531,153670,85907
43072,9632.457623859134,1671624861.606,531,153670,85907
43073,9632.465338424887,1671624861.606,535,153725,85929
43073,9632.47305299064,1671624861.606,535,153725,85929
43074,9632.480767556392,1671624861.702,532,153770,85887
43074,9632.488482122144,1671624861.702,532,153770,85887
43075,9632.496196687896,1671624861.702,532,153731,85919
43075,9632.503911253649,1671624861.702,532,153731,85919
43076,9632.511625819401,1671624861.702,533,153794,85916
43076,9632.519340385154,1671624861.702,533,153794,85916
43077,9632.527054950906,1671624861.702,532,153725,85909
43077,9632.534769516658,1671624861.702,532,153725,85909
43078,9632.54248408241,1671624861.702,532,153745,85883
43078,9632.550198648163,1671624861.702,532,153745,85883
43079,9632.557913213916,1671624861.702,534,153737,85873
43079,9632.565627779668,1671624861.702,534,153737,85873
43080,9632.57334234542,1671624861.793,535,153650,85860
43080,9632.581056911173,1671624861.793,535,153650,85860
43081,9632.588771476925,1671624861.793,536,153672,85868
43081,9632.596486042677,1671624861.793,536,153672,85868
43082,9632.608791104423,1671624861.793,534,153756,85886
43082,9632.615998181025,1671624861.793,534,153756,85886
43083,9632.623205257627,1671624861.793,536,153695,85859
43083,9632.630412334229,1671624861.793,536,153695,85859
43084,9632.63761941083,1671624861.793,532,153786,85862
43084,9632.644826487433,1671624861.793,532,153786,85862
43085,9632.652033564034,1671624861.793,533,153733,85857
43085,9632.659240640636,1671624861.793,533,153733,85857
43086,9632.666447717238,1671624861.893,533,153730,85865
43086,9632.67365479384,1671624861.893,533,153730,85865
43087,9632.680861870442,1671624861.893,533,153798,85868
43087,9632.688068947044,1671624861.893,533,153798,85868
43088,9632.695276023645,1671624861.893,533,153791,85861
43088,9632.702483100247,1671624861.893,533,153791,85861
43089,9632.70969017685,1671624861.893,534,153781,85852
43089,9632.716897253451,1671624861.893,534,153781,85852
43090,9632.724104330053,1671624861.893,534,153870,85890
43090,9632.731311406655,1671624861.893,534,153870,85890
43091,9632.738518483256,1671624861.893,534,153805,85881
43091,9632.745725559858,1671624861.893,534,153805,85881
43092,9632.769586774742,1671624861.986,532,153936,85918
43092,9632.777370619175,1671624861.986,532,153936,85918
43093,9632.785154463607,1671624861.986,531,153930,85902
43093,9632.792938308039,1671624861.986,531,153930,85902
43094,9632.800722152471,1671624861.986,531,153912,85934
43094,9632.808505996903,1671624861.986,531,153912,85934
43095,9632.816289841336,1671624861.986,532,153935,85927
43095,9632.824073685768,1671624861.986,532,153935,85927
43096,9632.8318575302,1671624861.986,532,153960,85946
43096,9632.839641374632,1671624861.986,532,153960,85946
43097,9632.847425219064,1671624861.986,533,154010,85958
43097,9632.855209063497,1671624861.986,533,154010,85958
43098,9632.862992907929,1671624862.086,534,154027,85947
43098,9632.870776752361,1671624862.086,534,154027,85947
43099,9632.878560596793,1671624862.086,534,154055,85949
43099,9632.886344441225,1671624862.086,534,154055,85949
43100,9632.894128285658,1671624862.086,532,154040,85970
43100,9632.90191213009,1671624862.086,532,154040,85970
43101,9632.909695974522,1671624862.086,533,154006,85945
43101,9632.917479818954,1671624862.086,533,154006,85945
43102,9632.92967626781,1671624862.086,530,153915,85918
43102,9632.937473961618,1671624862.086,530,153915,85918
43103,9632.945271655426,1671624862.086,534,153756,85906
43103,9632.953069349234,1671624862.086,534,153756,85906
43104,9632.960867043043,1671624862.178,535,153777,85867
43104,9632.96866473685,1671624862.178,535,153777,85867
43105,9632.976462430659,1671624862.178,535,153741,85857
43105,9632.984260124467,1671624862.178,535,153741,85857
43106,9632.992057818275,1671624862.178,535,153712,85849
43106,9632.999855512084,1671624862.178,535,153712,85849
43107,9633.007653205892,1671624862.178,535,153665,85820
43107,9633.0154508997,1671624862.178,535,153665,85820
43108,9633.023248593508,1671624862.178,536,153739,85867
43108,9633.031046287317,1671624862.178,536,153739,85867
43109,9633.038843981125,1671624862.178,533,153669,85805
43109,9633.046641674933,1671624862.178,533,153669,85805
43110,9633.054439368741,1671624862.266,533,153597,85791
43110,9633.06223706255,1671624862.266,533,153597,85791
43111,9633.070034756358,1671624862.266,533,153643,85815
43111,9633.077832450166,1671624862.266,533,153643,85815
43112,9633.083074073309,1671624862.266,534,153643,85813
43112,9633.090048289581,1671624862.266,534,153643,85813
43113,9633.097022505854,1671624862.266,534,153672,85804
43113,9633.103996722126,1671624862.266,534,153672,85804
43114,9633.110970938398,1671624862.266,535,153584,85799
43114,9633.11794515467,1671624862.266,535,153584,85799
43115,9633.124919370943,1671624862.266,534,153642,85795
43115,9633.131893587215,1671624862.266,534,153642,85795
43116,9633.138867803487,1671624862.363,532,153635,85785
43116,9633.14584201976,1671624862.363,532,153635,85785
43117,9633.152816236032,1671624862.363,533,153577,85774
43117,9633.159790452304,1671624862.363,533,153577,85774
43118,9633.166764668576,1671624862.363,534,153651,85771
43118,9633.173738884849,1671624862.363,534,153651,85771
43119,9633.180713101121,1671624862.363,533,153704,85775
43119,9633.187687317393,1671624862.363,533,153704,85775
43120,9633.194661533666,1671624862.363,534,153624,85771
43120,9633.201635749938,1671624862.363,534,153624,85771
43121,9633.20860996621,1671624862.363,535,153567,85726
43121,9633.215584182482,1671624862.363,535,153567,85726
43122,9633.239447301261,1671624862.46,533,153500,85748
43122,9633.247003814333,1671624862.46,533,153500,85748
43123,9633.254560327405,1671624862.46,534,153562,85765
43123,9633.262116840477,1671624862.46,534,153562,85765
43124,9633.269673353549,1671624862.46,534,153570,85748
43124,9633.27722986662,1671624862.46,534,153570,85748
43125,9633.284786379692,1671624862.46,533,153601,85769
43125,9633.292342892764,1671624862.46,533,153601,85769
43126,9633.299899405836,1671624862.46,532,153597,85758
43126,9633.307455918908,1671624862.46,532,153597,85758
43127,9633.31501243198,1671624862.46,532,153589,85798
43127,9633.322568945052,1671624862.46,532,153589,85798
43128,9633.330125458124,1671624862.552,535,153651,85751
43128,9633.337681971196,1671624862.552,535,153651,85751
43129,9633.345238484268,1671624862.552,535,153741,85806
43129,9633.35279499734,1671624862.552,535,153741,85806
43130,9633.360351510411,1671624862.552,533,153673,85795
43130,9633.367908023483,1671624862.552,533,153673,85795
43131,9633.375464536555,1671624862.552,533,153716,85814
43131,9633.383021049627,1671624862.552,533,153716,85814
43132,9633.397160520046,1671624862.552,533,153773,85848
43132,9633.404366761984,1671624862.552,533,153773,85848
43133,9633.411573003923,1671624862.552,533,153798,85847
43133,9633.418779245862,1671624862.552,533,153798,85847
43134,9633.4259854878,1671624862.642,531,153822,85872
43134,9633.433191729739,1671624862.642,531,153822,85872
43135,9633.440397971677,1671624862.642,533,153832,85888
43135,9633.447604213616,1671624862.642,533,153832,85888
43136,9633.454810455554,1671624862.642,535,153851,85888
43136,9633.462016697493,1671624862.642,535,153851,85888
43137,9633.469222939431,1671624862.642,534,153916,85881
43137,9633.47642918137,1671624862.642,534,153916,85881
43138,9633.483635423308,1671624862.642,533,153887,85904
43138,9633.490841665247,1671624862.642,533,153887,85904
43139,9633.498047907186,1671624862.642,533,153881,85899
43139,9633.505254149124,1671624862.642,533,153881,85899
43140,9633.512460391063,1671624862.734,533,153871,85882
43140,9633.519666633001,1671624862.734,533,153871,85882
43141,9633.52687287494,1671624862.734,531,153846,85885
43141,9633.534079116878,1671624862.734,531,153846,85885
43142,9633.548913992998,1671624862.734,533,153824,85847
43142,9633.556080638682,1671624862.734,533,153824,85847
43143,9633.563247284366,1671624862.734,531,153872,85861
43143,9633.57041393005,1671624862.734,531,153872,85861
43144,9633.577580575735,1671624862.734,531,153879,85863
43144,9633.58474722142,1671624862.734,531,153879,85863
43145,9633.591913867103,1671624862.734,533,153915,85878
43145,9633.599080512788,1671624862.734,533,153915,85878
43146,9633.606247158472,1671624862.838,532,153880,85874
43146,9633.613413804156,1671624862.838,532,153880,85874
43147,9633.62058044984,1671624862.838,529,154062,85900
43147,9633.627747095525,1671624862.838,529,154062,85900
43148,9633.634913741209,1671624862.838,529,154031,85917
43148,9633.642080386893,1671624862.838,529,154031,85917
43149,9633.649247032577,1671624862.838,528,154118,85940
43149,9633.656413678262,1671624862.838,528,154118,85940
43150,9633.663580323946,1671624862.838,529,154003,85919
43150,9633.67074696963,1671624862.838,529,154003,85919
43151,9633.677913615315,1671624862.838,531,153938,85924
43151,9633.685080260999,1671624862.838,531,153938,85924
43152,9633.71558759401,1671624862.929,530,154026,85918
43152,9633.723696539157,1671624862.929,530,154026,85918
43153,9633.731805484304,1671624862.929,529,153903,85927
43153,9633.73991442945,1671624862.929,529,153903,85927
43154,9633.748023374597,1671624862.929,529,153877,85936
43154,9633.756132319744,1671624862.929,529,153877,85936
43155,9633.764241264891,1671624862.929,530,153871,85927
43155,9633.772350210038,1671624862.929,530,153871,85927
43156,9633.780459155185,1671624862.929,528,153849,85956
43156,9633.788568100332,1671624862.929,528,153849,85956
43157,9633.796677045479,1671624862.929,527,153888,85981
43157,9633.804785990626,1671624862.929,527,153888,85981
43158,9633.812894935772,1671624863.014,527,153781,85957
43158,9633.82100388092,1671624863.014,527,153781,85957
43159,9633.829112826066,1671624863.014,528,153865,85970
43159,9633.837221771213,1671624863.014,528,153865,85970
43160,9633.84533071636,1671624863.014,528,153881,85972
43160,9633.853439661507,1671624863.014,528,153881,85972
43161,9633.861548606654,1671624863.014,528,153959,85953
43161,9633.8696575518,1671624863.014,528,153959,85953
43162,9633.860611040796,1671624863.014,528,153857,85941
43162,9633.867262709451,1671624863.014,528,153857,85941
43163,9633.873914378106,1671624863.014,529,153836,85939
43163,9633.88056604676,1671624863.014,529,153836,85939
43164,9633.887217715415,1671624863.117,527,153699,85880
43164,9633.89386938407,1671624863.117,527,153699,85880
43165,9633.900521052725,1671624863.117,528,153686,85906
43165,9633.90717272138,1671624863.117,528,153686,85906
43166,9633.913824390034,1671624863.117,528,153826,85913
43166,9633.920476058689,1671624863.117,528,153826,85913
43167,9633.927127727344,1671624863.117,528,153729,85865
43167,9633.933779395998,1671624863.117,528,153729,85865
43168,9633.940431064653,1671624863.117,528,153697,85858
43168,9633.947082733308,1671624863.117,528,153697,85858
43169,9633.953734401963,1671624863.117,529,153762,85867
43169,9633.960386070617,1671624863.117,529,153762,85867
43170,9633.967037739272,1671624863.212,529,153732,85859
43170,9633.973689407927,1671624863.212,529,153732,85859
43171,9633.980341076582,1671624863.212,529,153674,85851
43171,9633.986992745236,1671624863.212,529,153674,85851
43172,9634.025405759538,1671624863.212,527,153754,85860
43172,9634.03305795552,1671624863.212,527,153754,85860
43173,9634.040710151501,1671624863.212,527,153763,85877
43173,9634.048362347483,1671624863.212,527,153763,85877
43174,9634.056014543465,1671624863.212,529,153809,85902
43174,9634.063666739446,1671624863.212,529,153809,85902
43175,9634.071318935428,1671624863.212,528,153884,85909
43175,9634.07897113141,1671624863.212,528,153884,85909
43176,9634.086623327392,1671624863.316,529,153900,85911
43176,9634.094275523374,1671624863.316,529,153900,85911
43177,9634.101927719355,1671624863.316,529,153807,85901
43177,9634.109579915337,1671624863.316,529,153807,85901
43178,9634.117232111319,1671624863.316,527,153923,85925
43178,9634.1248843073,1671624863.316,527,153923,85925
43179,9634.132536503283,1671624863.316,529,153810,85919
43179,9634.140188699264,1671624863.316,529,153810,85919
43180,9634.147840895246,1671624863.316,526,153902,85937
43180,9634.155493091228,1671624863.316,526,153902,85937
43181,9634.16314528721,1671624863.316,528,153869,85907
43181,9634.170797483192,1671624863.316,528,153869,85907
43182,9634.193277278971,1671624863.383,527,153815,85926
43182,9634.201362241696,1671624863.383,527,153815,85926
43183,9634.209447204421,1671624863.383,527,153878,85930
43183,9634.217532167146,1671624863.383,527,153878,85930
43184,9634.22561712987,1671624863.383,530,153819,85905
43184,9634.233702092595,1671624863.383,530,153819,85905
43185,9634.24178705532,1671624863.383,529,153901,85895
43185,9634.249872018045,1671624863.383,529,153901,85895
43186,9634.25795698077,1671624863.383,528,153929,85926
43186,9634.266041943494,1671624863.383,528,153929,85926
43187,9634.274126906219,1671624863.383,529,153980,85932
43187,9634.282211868944,1671624863.383,529,153980,85932
43188,9634.290296831668,1671624863.501,528,153959,85929
43188,9634.298381794393,1671624863.501,528,153959,85929
43189,9634.306466757118,1671624863.501,527,153936,85907
43189,9634.314551719843,1671624863.501,527,153936,85907
43190,9634.322636682567,1671624863.501,529,153963,85913
43190,9634.330721645292,1671624863.501,529,153963,85913
43191,9634.338806608017,1671624863.501,528,153948,85910
43191,9634.346891570742,1671624863.501,528,153948,85910
43192,9634.33997894547,1671624863.501,529,153994,85924
43192,9634.349017028488,1671624863.501,529,153994,85924
43193,9634.358055111505,1671624863.501,530,153929,85882
43193,9634.367093194522,1671624863.501,530,153929,85882
43194,9634.376131277539,1671624863.587,529,154067,85908
43194,9634.385169360556,1671624863.587,529,154067,85908
43195,9634.394207443573,1671624863.587,529,153988,85879
43195,9634.40324552659,1671624863.587,529,153988,85879
43196,9634.412283609607,1671624863.587,529,154007,85871
43196,9634.421321692624,1671624863.587,529,154007,85871
43197,9634.43035977564,1671624863.587,528,153957,85874
43197,9634.439397858658,1671624863.587,528,153957,85874
43198,9634.448435941675,1671624863.587,530,153948,85849
43198,9634.457474024692,1671624863.587,530,153948,85849
43199,9634.466512107709,1671624863.587,529,153875,85865
43199,9634.475550190726,1671624863.587,529,153875,85865
43200,9634.484588273743,1671624863.687,530,153703,85830
43200,9634.49362635676,1671624863.687,530,153703,85830
43201,9634.502664439777,1671624863.687,530,153805,85825
43201,9634.511702522794,1671624863.687,530,153805,85825
43202,9634.496638080469,1671624863.687,531,153736,85826
43202,9634.504139389332,1671624863.687,531,153736,85826
43203,9634.511640698194,1671624863.687,528,153718,85845
43203,9634.519142007057,1671624863.687,528,153718,85845
43204,9634.52664331592,1671624863.687,529,153690,85792
43204,9634.534144624782,1671624863.687,529,153690,85792
43205,9634.541645933645,1671624863.687,527,153717,85795
43205,9634.549147242507,1671624863.687,527,153717,85795
43206,9634.55664855137,1671624863.762,528,153772,85812
43206,9634.564149860233,1671624863.762,528,153772,85812
43207,9634.571651169095,1671624863.762,529,153676,85790
43207,9634.579152477958,1671624863.762,529,153676,85790
43208,9634.58665378682,1671624863.762,531,153710,85786
43208,9634.594155095683,1671624863.762,531,153710,85786
43209,9634.601656404546,1671624863.762,530,153606,85759
43209,9634.609157713408,1671624863.762,530,153606,85759
43210,9634.616659022271,1671624863.762,531,153664,85791
43210,9634.624160331134,1671624863.762,531,153664,85791
43211,9634.631661639996,1671624863.762,529,153585,85768
43211,9634.639162948859,1671624863.762,529,153585,85768
43212,9634.636645371222,1671624863.871,529,153651,85776
43212,9634.64252638053,1671624863.871,529,153651,85776
43213,9634.64840738984,1671624863.871,528,153588,85767
43213,9634.654288399148,1671624863.871,528,153588,85767
43214,9634.660169408457,1671624863.871,528,153721,85783
43214,9634.666050417765,1671624863.871,528,153721,85783
43215,9634.671931427074,1671624863.871,529,153729,85809
43215,9634.677812436383,1671624863.871,529,153729,85809
43216,9634.683693445691,1671624863.871,530,153739,85818
43216,9634.689574455,1671624863.871,530,153739,85818
43217,9634.695455464309,1671624863.871,528,153745,85808
43217,9634.701336473618,1671624863.871,528,153745,85808
43218,9634.707217482926,1671624863.952,529,153657,85818
43218,9634.713098492235,1671624863.952,529,153657,85818
43219,9634.718979501544,1671624863.952,527,153718,85859
43219,9634.724860510853,1671624863.952,527,153718,85859
43220,9634.730741520161,1671624863.952,527,153740,85839
43220,9634.73662252947,1671624863.952,527,153740,85839
43221,9634.742503538779,1671624863.952,527,153808,85886
43221,9634.748384548087,1671624863.952,527,153808,85886
43222,9634.800348282606,1671624863.952,528,153674,85865
43222,9634.806848405919,1671624863.952,528,153674,85865
43223,9634.813348529231,1671624863.952,528,153720,85849
43223,9634.819848652543,1671624863.952,528,153720,85849
43224,9634.826348775856,1671624864.046,530,153779,85860
43224,9634.832848899168,1671624864.046,530,153779,85860
43225,9634.83934902248,1671624864.046,528,153751,85855
43225,9634.845849145793,1671624864.046,528,153751,85855
43226,9634.852349269106,1671624864.046,528,153843,85884
43226,9634.858849392418,1671624864.046,528,153843,85884
43227,9634.86534951573,1671624864.046,527,153713,85861
43227,9634.871849639043,1671624864.046,527,153713,85861
43228,9634.878349762355,1671624864.046,526,153742,85851
43228,9634.884849885668,1671624864.046,526,153742,85851
43229,9634.89135000898,1671624864.046,527,153729,85842
43229,9634.897850132293,1671624864.046,527,153729,85842
43230,9634.904350255605,1671624864.134,528,153677,85862
43230,9634.910850378918,1671624864.134,528,153677,85862
43231,9634.91735050223,1671624864.134,526,153731,85850
43231,9634.923850625542,1671624864.134,526,153731,85850
43232,9634.951467432289,1671624864.134,528,153719,85854
43232,9634.958459602218,1671624864.134,528,153719,85854
43233,9634.965451772146,1671624864.134,529,153852,85889
43233,9634.972443942075,1671624864.134,529,153852,85889
43234,9634.979436112004,1671624864.134,528,153761,85850
43234,9634.986428281933,1671624864.134,528,153761,85850
43235,9634.993420451861,1671624864.134,528,153843,85880
43235,9635.00041262179,1671624864.134,528,153843,85880
43236,9635.007404791719,1671624864.232,527,153908,85900
43236,9635.014396961647,1671624864.232,527,153908,85900
43237,9635.021389131576,1671624864.232,527,153822,85861
43237,9635.028381301505,1671624864.232,527,153822,85861
43238,9635.035373471434,1671624864.232,526,153815,85861
43238,9635.042365641362,1671624864.232,526,153815,85861
43239,9635.049357811291,1671624864.232,529,153822,85871
43239,9635.05634998122,1671624864.232,529,153822,85871
43240,9635.063342151148,1671624864.232,529,153889,85889
43240,9635.070334321077,1671624864.232,529,153889,85889
43241,9635.077326491006,1671624864.232,530,153851,85876
43241,9635.084318660935,1671624864.232,530,153851,85876
43242,9635.109037669577,1671624864.331,530,153886,85879
43242,9635.116714892862,1671624864.331,530,153886,85879
43243,9635.124392116146,1671624864.331,529,153853,85868
43243,9635.13206933943,1671624864.331,529,153853,85868
43244,9635.139746562714,1671624864.331,528,153794,85875
43244,9635.147423785998,1671624864.331,528,153794,85875
43245,9635.155101009283,1671624864.331,528,153804,85879
43245,9635.162778232567,1671624864.331,528,153804,85879
43246,9635.170455455851,1671624864.331,529,153807,85854
43246,9635.178132679135,1671624864.331,529,153807,85854
43247,9635.18580990242,1671624864.331,530,153714,85826
43247,9635.193487125704,1671624864.331,530,153714,85826
43248,9635.201164348988,1671624864.42,529,153614,85818
43248,9635.208841572272,1671624864.42,529,153614,85818
43249,9635.216518795556,1671624864.42,529,153632,85815
43249,9635.22419601884,1671624864.42,529,153632,85815
43250,9635.231873242124,1671624864.42,529,153621,85805
43250,9635.239550465409,1671624864.42,529,153621,85805
43251,9635.247227688693,1671624864.42,528,153559,85803
43251,9635.254904911977,1671624864.42,528,153559,85803
43252,9635.266126202963,1671624864.42,529,153546,85785
43252,9635.273158626303,1671624864.42,529,153546,85785
43253,9635.280191049644,1671624864.42,529,153542,85792
43253,9635.287223472984,1671624864.42,529,153542,85792
43254,9635.294255896324,1671624864.511,529,153571,85782
43254,9635.301288319664,1671624864.511,529,153571,85782
43255,9635.308320743005,1671624864.511,529,153568,85814
43255,9635.315353166345,1671624864.511,529,153568,85814
43256,9635.322385589685,1671624864.511,531,153554,85799
43256,9635.329418013025,1671624864.511,531,153554,85799
43257,9635.336450436365,1671624864.511,528,153497,85803
43257,9635.343482859706,1671624864.511,528,153497,85803
43258,9635.350515283046,1671624864.511,529,153571,85829
43258,9635.357547706386,1671624864.511,529,153571,85829
43259,9635.364580129726,1671624864.511,528,153566,85826
43259,9635.371612553066,1671624864.511,528,153566,85826
43260,9635.378644976407,1671624864.606,528,153705,85869
43260,9635.385677399747,1671624864.606,528,153705,85869
43261,9635.392709823087,1671624864.606,528,153660,85857
43261,9635.399742246427,1671624864.606,528,153660,85857
43262,9635.419128714047,1671624864.606,529,153659,85850
43262,9635.426442312917,1671624864.606,529,153659,85850
43263,9635.433755911787,1671624864.606,529,153682,85876
43263,9635.441069510656,1671624864.606,529,153682,85876
43264,9635.448383109526,1671624864.606,529,153661,85882
43264,9635.455696708395,1671624864.606,529,153661,85882
43265,9635.463010307265,1671624864.606,530,153603,85878
43265,9635.470323906135,1671624864.606,530,153603,85878
43266,9635.477637505004,1671624864.697,530,153716,85889
43266,9635.484951103874,1671624864.697,530,153716,85889
43267,9635.492264702743,1671624864.697,530,153645,85874
43267,9635.499578301613,1671624864.697,530,153645,85874
43268,9635.506891900483,1671624864.697,528,153671,85867
43268,9635.514205499352,1671624864.697,528,153671,85867
43269,9635.521519098222,1671624864.697,528,153647,85856
43269,9635.528832697091,1671624864.697,528,153647,85856
43270,9635.53614629596,1671624864.697,528,153559,85870
43270,9635.54345989483,1671624864.697,528,153559,85870
43271,9635.5507734937,1671624864.697,530,153667,85863
43271,9635.55808709257,1671624864.697,530,153667,85863
43272,9635.57295498212,1671624864.802,530,153693,85848
43272,9635.580066982755,1671624864.802,530,153693,85848
43273,9635.58717898339,1671624864.802,531,153717,85863
43273,9635.594290984023,1671624864.802,531,153717,85863
43274,9635.601402984657,1671624864.802,531,153678,85843
43274,9635.608514985292,1671624864.802,531,153678,85843
43275,9635.615626985926,1671624864.802,529,153599,85823
43275,9635.62273898656,1671624864.802,529,153599,85823
43276,9635.629850987194,1671624864.802,528,153692,85853
43276,9635.636962987828,1671624864.802,528,153692,85853
43277,9635.644074988462,1671624864.802,529,153644,85842
43277,9635.651186989096,1671624864.802,529,153644,85842
43278,9635.65829898973,1671624864.89,528,153616,85834
43278,9635.665410990365,1671624864.89,528,153616,85834
43279,9635.672522990999,1671624864.89,531,153753,85872
43279,9635.679634991633,1671624864.89,531,153753,85872
43280,9635.686746992267,1671624864.89,533,153664,85838
43280,9635.693858992901,1671624864.89,533,153664,85838
43281,9635.700970993536,1671624864.89,530,153762,85878
43281,9635.70808299417,1671624864.89,530,153762,85878
43282,9635.736577714428,1671624864.89,530,153749,85863
43282,9635.74350722061,1671624864.89,530,153749,85863
43283,9635.750436726792,1671624864.89,530,153698,85843
43283,9635.757366232974,1671624864.89,530,153698,85843
43284,9635.764295739156,1671624864.979,531,153808,85863
43284,9635.771225245338,1671624864.979,531,153808,85863
43285,9635.77815475152,1671624864.979,527,153722,85858
43285,9635.785084257703,1671624864.979,527,153722,85858
43286,9635.792013763885,1671624864.979,530,153794,85846
43286,9635.798943270067,1671624864.979,530,153794,85846
43287,9635.805872776249,1671624864.979,531,153711,85860
43287,9635.812802282431,1671624864.979,531,153711,85860
43288,9635.819731788613,1671624864.979,531,153826,85850
43288,9635.826661294795,1671624864.979,531,153826,85850
43289,9635.833590800978,1671624864.979,532,153784,85878
43289,9635.84052030716,1671624864.979,532,153784,85878
43290,9635.847449813342,1671624865.086,531,153719,85860
43290,9635.854379319524,1671624865.086,531,153719,85860
43291,9635.861308825706,1671624865.086,529,153707,85839
43291,9635.868238331888,1671624865.086,529,153707,85839
43292,9635.891428116956,1671624865.086,527,153687,85847
43292,9635.89933769136,1671624865.086,527,153687,85847
43293,9635.907247265764,1671624865.086,527,153641,85862
43293,9635.915156840168,1671624865.086,527,153641,85862
43294,9635.923066414573,1671624865.086,528,153699,85870
43294,9635.930975988977,1671624865.086,528,153699,85870
43295,9635.93888556338,1671624865.086,528,153642,85856
43295,9635.946795137785,1671624865.086,528,153642,85856
43296,9635.954704712189,1671624865.167,529,153628,85848
43296,9635.962614286593,1671624865.167,529,153628,85848
43297,9635.970523860997,1671624865.167,529,153615,85850
43297,9635.9784334354,1671624865.167,529,153615,85850
43298,9635.986343009805,1671624865.167,530,153555,85866
43298,9635.994252584209,1671624865.167,530,153555,85866
43299,9636.002162158613,1671624865.167,529,153638,85875
43299,9636.010071733017,1671624865.167,529,153638,85875
43300,9636.017981307421,1671624865.167,527,153638,85852
43300,9636.025890881825,1671624865.167,527,153638,85852
43301,9636.033800456229,1671624865.167,527,153612,85880
43301,9636.041710030633,1671624865.167,527,153612,85880
43302,9636.042270810207,1671624865.258,529,153543,85879
43302,9636.048671963454,1671624865.258,529,153543,85879
43303,9636.0550731167,1671624865.258,529,153513,85861
43303,9636.061474269947,1671624865.258,529,153513,85861
43304,9636.067875423194,1671624865.258,530,153611,85867
43304,9636.07427657644,1671624865.258,530,153611,85867
43305,9636.080677729688,1671624865.258,529,153730,85832
43305,9636.087078882934,1671624865.258,529,153730,85832
43306,9636.093480036181,1671624865.258,529,153563,85844
43306,9636.099881189428,1671624865.258,529,153563,85844
43307,9636.106282342675,1671624865.258,529,153585,85852
43307,9636.112683495921,1671624865.258,529,153585,85852
43308,9636.119084649168,1671624865.359,528,153661,85858
43308,9636.125485802415,1671624865.359,528,153661,85858
43309,9636.131886955662,1671624865.359,528,153598,85851
43309,9636.138288108908,1671624865.359,528,153598,85851
43310,9636.144689262155,1671624865.359,529,153560,85852
43310,9636.151090415402,1671624865.359,529,153560,85852
43311,9636.157491568649,1671624865.359,531,153574,85832
43311,9636.163892721896,1671624865.359,531,153574,85832
43312,9636.202358605115,1671624865.359,530,153534,85819
43312,9636.210173493957,1671624865.359,530,153534,85819
43313,9636.2179883828,1671624865.359,528,153511,85812
43313,9636.225803271642,1671624865.359,528,153511,85812
43314,9636.233618160484,1671624865.48,530,153616,85817
43314,9636.241433049327,1671624865.48,530,153616,85817
43315,9636.249247938169,1671624865.48,528,153620,85844
43315,9636.257062827011,1671624865.48,528,153620,85844
43316,9636.264877715854,1671624865.48,529,153575,85832
43316,9636.272692604696,1671624865.48,529,153575,85832
43317,9636.280507493539,1671624865.48,528,153591,85828
43317,9636.288322382381,1671624865.48,528,153591,85828
43318,9636.296137271223,1671624865.48,530,153591,85838
43318,9636.303952160066,1671624865.48,530,153591,85838
43319,9636.311767048908,1671624865.48,529,153581,85845
43319,9636.31958193775,1671624865.48,529,153581,85845
43320,9636.327396826593,1671624865.543,531,153557,85816
43320,9636.335211715435,1671624865.543,531,153557,85816
43321,9636.343026604278,1671624865.543,529,153591,85841
43321,9636.35084149312,1671624865.543,529,153591,85841
43322,9636.376944803813,1671624865.543,530,153592,85825
43322,9636.383213419202,1671624865.543,530,153592,85825
43323,9636.38948203459,1671624865.543,530,153558,85852
43323,9636.39575064998,1671624865.543,530,153558,85852
43324,9636.402019265368,1671624865.543,529,153713,85845
43324,9636.408287880757,1671624865.543,529,153713,85845
43325,9636.414556496145,1671624865.543,529,153603,85849
43325,9636.420825111534,1671624865.543,529,153603,85849
43326,9636.427093726923,1671624865.647,529,153713,85893
43326,9636.433362342312,1671624865.647,529,153713,85893
43327,9636.4396309577,1671624865.647,532,153726,85876
43327,9636.44589957309,1671624865.647,532,153726,85876
43328,9636.452168188478,1671624865.647,532,153762,85878
43328,9636.458436803867,1671624865.647,532,153762,85878
43329,9636.464705419256,1671624865.647,531,153719,85884
43329,9636.470974034644,1671624865.647,531,153719,85884
43330,9636.477242650033,1671624865.647,530,153766,85925
43330,9636.483511265422,1671624865.647,530,153766,85925
43331,9636.48977988081,1671624865.647,530,153668,85886
43331,9636.4960484962,1671624865.647,530,153668,85886
43332,9636.524452375874,1671624865.732,531,153739,85917
43332,9636.532541186936,1671624865.732,531,153739,85917
43333,9636.540629997999,1671624865.732,529,153761,85912
43333,9636.548718809061,1671624865.732,529,153761,85912
43334,9636.556807620123,1671624865.732,530,153763,85888
43334,9636.564896431186,1671624865.732,530,153763,85888
43335,9636.572985242248,1671624865.732,531,153707,85897
43335,9636.58107405331,1671624865.732,531,153707,85897
43336,9636.589162864373,1671624865.732,531,153775,85902
43336,9636.597251675435,1671624865.732,531,153775,85902
43337,9636.605340486498,1671624865.732,531,153686,85869
43337,9636.61342929756,1671624865.732,531,153686,85869
43338,9636.621518108623,1671624865.837,532,153761,85929
43338,9636.629606919685,1671624865.837,532,153761,85929
43339,9636.637695730748,1671624865.837,529,153652,85920
43339,9636.64578454181,1671624865.837,529,153652,85920
43340,9636.653873352872,1671624865.837,528,153672,85908
43340,9636.661962163935,1671624865.837,528,153672,85908
43341,9636.670050974997,1671624865.837,529,153636,85940
43341,9636.67813978606,1671624865.837,529,153636,85940
43342,9636.679021684047,1671624865.837,529,153749,85970
43342,9636.687148109504,1671624865.837,529,153749,85970
43343,9636.69527453496,1671624865.837,529,153802,85994
43343,9636.703400960418,1671624865.837,529,153802,85994
43344,9636.711527385874,1671624865.92,530,153802,86011
43344,9636.719653811331,1671624865.92,530,153802,86011
43345,9636.727780236788,1671624865.92,529,153856,86068
43345,9636.735906662245,1671624865.92,529,153856,86068
43346,9636.744033087702,1671624865.92,530,153887,86066
43346,9636.752159513158,1671624865.92,530,153887,86066
43347,9636.760285938615,1671624865.92,530,153757,86024
43347,9636.768412364072,1671624865.92,530,153757,86024
43348,9636.776538789529,1671624865.92,528,153817,86009
43348,9636.784665214986,1671624865.92,528,153817,86009
43349,9636.792791640442,1671624865.92,530,153724,85965
43349,9636.8009180659,1671624865.92,530,153724,85965
43350,9636.809044491356,1671624866.009,530,153586,85930
43350,9636.817170916813,1671624866.009,530,153586,85930
43351,9636.82529734227,1671624866.009,531,153611,85951
43351,9636.833423767726,1671624866.009,531,153611,85951
43352,9636.82556671645,1671624866.009,531,153719,85957
43352,9636.832392091805,1671624866.009,531,153719,85957
43353,9636.839217467159,1671624866.009,532,153725,85967
43353,9636.846042842513,1671624866.009,532,153725,85967
43354,9636.852868217868,1671624866.009,531,153763,85980
43354,9636.859693593222,1671624866.009,531,153763,85980
43355,9636.866518968576,1671624866.009,529,153750,85984
43355,9636.87334434393,1671624866.009,529,153750,85984
43356,9636.880169719285,1671624866.107,529,153678,85969
43356,9636.88699509464,1671624866.107,529,153678,85969
43357,9636.893820469993,1671624866.107,529,153644,85976
43357,9636.900645845348,1671624866.107,529,153644,85976
43358,9636.907471220702,1671624866.107,530,153644,85966
43358,9636.914296596056,1671624866.107,530,153644,85966
43359,9636.92112197141,1671624866.107,528,153705,85991
43359,9636.927947346765,1671624866.107,528,153705,85991
43360,9636.93477272212,1671624866.107,529,153697,85979
43360,9636.941598097474,1671624866.107,529,153697,85979
43361,9636.948423472828,1671624866.107,528,153732,85988
43361,9636.955248848182,1671624866.107,528,153732,85988
43362,9636.983927722464,1671624866.203,527,153681,86004
43362,9636.991571489236,1671624866.203,527,153681,86004
43363,9636.999215256008,1671624866.203,526,153667,85990
43363,9637.00685902278,1671624866.203,526,153667,85990
43364,9637.014502789552,1671624866.203,526,153643,85972
43364,9637.022146556325,1671624866.203,526,153643,85972
43365,9637.029790323097,1671624866.203,525,153664,85958
43365,9637.037434089869,1671624866.203,525,153664,85958
43366,9637.045077856641,1671624866.203,527,153629,85948
43366,9637.052721623413,1671624866.203,527,153629,85948
43367,9637.060365390185,1671624866.203,526,153554,85930
43367,9637.068009156957,1671624866.203,526,153554,85930
43368,9637.07565292373,1671624866.297,526,153669,85936
43368,9637.083296690502,1671624866.297,526,153669,85936
43369,9637.090940457274,1671624866.297,526,153635,85943
43369,9637.098584224046,1671624866.297,526,153635,85943
43370,9637.106227990818,1671624866.297,527,153516,85918
43370,9637.11387175759,1671624866.297,527,153516,85918
43371,9637.121515524363,1671624866.297,526,153595,85902
43371,9637.129159291135,1671624866.297,526,153595,85902
43372,9637.141834372344,1671624866.297,525,153656,85913
43372,9637.149198892024,1671624866.297,525,153656,85913
43373,9637.156563411705,1671624866.297,525,153609,85912
43373,9637.163927931386,1671624866.297,525,153609,85912
43374,9637.171292451067,1671624866.392,527,153576,85899
43374,9637.178656970747,1671624866.392,527,153576,85899
43375,9637.186021490428,1671624866.392,525,153592,85919
43375,9637.193386010109,1671624866.392,525,153592,85919
43376,9637.20075052979,1671624866.392,526,153565,85932
43376,9637.20811504947,1671624866.392,526,153565,85932
43377,9637.215479569151,1671624866.392,526,153585,85937
43377,9637.222844088832,1671624866.392,526,153585,85937
43378,9637.230208608513,1671624866.392,525,153616,85945
43378,9637.237573128194,1671624866.392,525,153616,85945
43379,9637.244937647874,1671624866.392,525,153662,85960
43379,9637.252302167555,1671624866.392,525,153662,85960
43380,9637.259666687236,1671624866.482,524,153710,85947
43380,9637.267031206917,1671624866.482,524,153710,85947
43381,9637.274395726598,1671624866.482,523,153675,85967
43381,9637.281760246278,1671624866.482,523,153675,85967
43382,9637.298153930427,1671624866.482,524,153694,85959
43382,9637.305292637318,1671624866.482,524,153694,85959
43383,9637.31243134421,1671624866.482,526,153693,85963
43383,9637.3195700511,1671624866.482,526,153693,85963
43384,9637.326708757992,1671624866.482,525,153662,85958
43384,9637.333847464883,1671624866.482,525,153662,85958
43385,9637.340986171774,1671624866.482,525,153601,85928
43385,9637.348124878665,1671624866.482,525,153601,85928
43386,9637.355263585556,1671624866.576,525,153666,85943
43386,9637.362402292447,1671624866.576,525,153666,85943
43387,9637.369540999338,1671624866.576,525,153508,85872
43387,9637.376679706229,1671624866.576,525,153508,85872
43388,9637.38381841312,1671624866.576,524,153481,85873
43388,9637.390957120011,1671624866.576,524,153481,85873
43389,9637.398095826902,1671624866.576,525,153493,85894
43389,9637.405234533793,1671624866.576,525,153493,85894
43390,9637.412373240684,1671624866.576,526,153476,85873
43390,9637.419511947575,1671624866.576,526,153476,85873
43391,9637.426650654466,1671624866.576,527,153540,85925
43391,9637.433789361357,1671624866.576,527,153540,85925
43392,9637.452081675081,1671624866.678,528,153441,85904
43392,9637.459415527384,1671624866.678,528,153441,85904
43393,9637.466749379688,1671624866.678,527,153509,85903
43393,9637.474083231991,1671624866.678,527,153509,85903
43394,9637.481417084295,1671624866.678,527,153561,85924
43394,9637.488750936598,1671624866.678,527,153561,85924
43395,9637.496084788901,1671624866.678,526,153469,85923
43395,9637.503418641205,1671624866.678,526,153469,85923
43396,9637.510752493508,1671624866.678,526,153492,85919
43396,9637.518086345812,1671624866.678,526,153492,85919
43397,9637.525420198115,1671624866.678,525,153514,85898
43397,9637.532754050419,1671624866.678,525,153514,85898
43398,9637.540087902722,1671624866.76,528,153580,85923
43398,9637.547421755025,1671624866.76,528,153580,85923
43399,9637.554755607329,1671624866.76,528,153457,85909
43399,9637.562089459632,1671624866.76,528,153457,85909
43400,9637.569423311936,1671624866.76,529,153549,85923
43400,9637.57675716424,1671624866.76,529,153549,85923
43401,9637.584091016543,1671624866.76,529,153465,85896
43401,9637.591424868846,1671624866.76,529,153465,85896
43402,9637.607619761957,1671624866.76,529,153504,85891
43402,9637.614089885108,1671624866.76,529,153504,85891
43403,9637.62056000826,1671624866.76,528,153476,85900
43403,9637.62703013141,1671624866.76,528,153476,85900
43404,9637.633500254562,1671624866.858,527,153456,85893
43404,9637.639970377713,1671624866.858,527,153456,85893
43405,9637.646440500865,1671624866.858,527,153395,85876
43405,9637.652910624016,1671624866.858,527,153395,85876
43406,9637.659380747167,1671624866.858,530,153401,85858
43406,9637.665850870319,1671624866.858,530,153401,85858
43407,9637.67232099347,1671624866.858,530,153495,85872
43407,9637.678791116621,1671624866.858,530,153495,85872
43408,9637.685261239772,1671624866.858,529,153398,85858
43408,9637.691731362924,1671624866.858,529,153398,85858
43409,9637.698201486075,1671624866.858,529,153438,85866
43409,9637.704671609226,1671624866.858,529,153438,85866
43410,9637.711141732378,1671624866.961,527,153290,85828
43410,9637.717611855529,1671624866.961,527,153290,85828
43411,9637.72408197868,1671624866.961,527,153404,85861
43411,9637.730552101832,1671624866.961,527,153404,85861
43412,9637.769201785615,1671624866.961,527,153359,85842
43412,9637.777158946237,1671624866.961,527,153359,85842
43413,9637.78511610686,1671624866.961,527,153335,85818
43413,9637.793073267481,1671624866.961,527,153335,85818
43414,9637.801030428103,1671624866.961,526,153411,85825
43414,9637.808987588725,1671624866.961,526,153411,85825
43415,9637.816944749347,1671624866.961,527,153427,85827
43415,9637.82490190997,1671624866.961,527,153427,85827
43416,9637.832859070591,1671624867.048,529,153353,85805
43416,9637.840816231213,1671624867.048,529,153353,85805
43417,9637.848773391835,1671624867.048,528,153322,85815
43417,9637.856730552458,1671624867.048,528,153322,85815
43418,9637.86468771308,1671624867.048,527,153342,85838
43418,9637.872644873702,1671624867.048,527,153342,85838
43419,9637.880602034324,1671624867.048,526,153368,85826
43419,9637.888559194946,1671624867.048,526,153368,85826
43420,9637.896516355568,1671624867.048,527,153501,85903
43420,9637.90447351619,1671624867.048,527,153501,85903
43421,9637.912430676812,1671624867.048,525,153615,85932
43421,9637.920387837434,1671624867.048,525,153615,85932
43422,9637.923180996966,1671624867.138,527,153538,85907
43422,9637.929949612975,1671624867.138,527,153538,85907
43423,9637.936718228984,1671624867.138,526,153576,85926
43423,9637.943486844993,1671624867.138,526,153576,85926
43424,9637.950255461003,1671624867.138,526,153700,85934
43424,9637.957024077012,1671624867.138,526,153700,85934
43425,9637.96379269302,1671624867.138,527,153559,85887
43425,9637.97056130903,1671624867.138,527,153559,85887
43426,9637.97732992504,1671624867.138,528,153608,85888
43426,9637.984098541048,1671624867.138,528,153608,85888
43427,9637.990867157057,1671624867.138,526,153534,85871
43427,9637.997635773067,1671624867.138,526,153534,85871
43428,9638.004404389076,1671624867.247,525,153460,85856
43428,9638.011173005085,1671624867.247,525,153460,85856
43429,9638.017941621094,1671624867.247,527,153475,85818
43429,9638.024710237103,1671624867.247,527,153475,85818
43430,9638.031478853112,1671624867.247,529,153502,85859
43430,9638.038247469121,1671624867.247,529,153502,85859
43431,9638.04501608513,1671624867.247,529,153425,85816
43431,9638.05178470114,1671624867.247,529,153425,85816
43432,9638.08823147384,1671624867.247,529,153455,85827
43432,9638.096695980617,1671624867.247,529,153455,85827
43433,9638.105160487396,1671624867.247,528,153433,85820
43433,9638.113624994174,1671624867.247,528,153433,85820
43434,9638.122089500952,1671624867.337,528,153350,85805
43434,9638.13055400773,1671624867.337,528,153350,85805
43435,9638.139018514508,1671624867.337,527,153315,85774
43435,9638.147483021286,1671624867.337,527,153315,85774
43436,9638.155947528065,1671624867.337,528,153418,85798
43436,9638.164412034843,1671624867.337,528,153418,85798
43437,9638.172876541621,1671624867.337,528,153313,85806
43437,9638.1813410484,1671624867.337,528,153313,85806
43438,9638.189805555177,1671624867.337,527,153318,85781
43438,9638.198270061956,1671624867.337,527,153318,85781
43439,9638.206734568734,1671624867.337,529,153324,85784
43439,9638.215199075512,1671624867.337,529,153324,85784
43440,9638.22366358229,1671624867.426,530,153407,85785
43440,9638.232128089068,1671624867.426,530,153407,85785
43441,9638.240592595846,1671624867.426,528,153375,85793
43441,9638.249057102625,1671624867.426,528,153375,85793
43442,9638.242394510331,1671624867.426,529,153341,85776
43442,9638.249346457807,1671624867.426,529,153341,85776
43443,9638.256298405284,1671624867.426,529,153339,85763
43443,9638.26325035276,1671624867.426,529,153339,85763
43444,9638.270202300237,1671624867.426,531,153413,85748
43444,9638.277154247713,1671624867.426,531,153413,85748
43445,9638.28410619519,1671624867.426,529,153383,85760
43445,9638.291058142666,1671624867.426,529,153383,85760
43446,9638.298010090142,1671624867.518,531,153392,85759
43446,9638.304962037619,1671624867.518,531,153392,85759
43447,9638.311913985095,1671624867.518,529,153376,85753
43447,9638.318865932571,1671624867.518,529,153376,85753
43448,9638.325817880048,1671624867.518,531,153417,85753
43448,9638.332769827524,1671624867.518,531,153417,85753
43449,9638.339721775,1671624867.518,529,153274,85718
43449,9638.346673722477,1671624867.518,529,153274,85718
43450,9638.353625669954,1671624867.518,530,153308,85706
43450,9638.36057761743,1671624867.518,530,153308,85706
43451,9638.367529564906,1671624867.518,530,153292,85689
43451,9638.374481512383,1671624867.518,530,153292,85689
43452,9638.393571658993,1671624867.608,530,153233,85678
43452,9638.400749291177,1671624867.608,530,153233,85678
43453,9638.40792692336,1671624867.608,528,153315,85671
43453,9638.415104555545,1671624867.608,528,153315,85671
43454,9638.422282187728,1671624867.608,530,153223,85636
43454,9638.429459819912,1671624867.608,530,153223,85636
43455,9638.436637452096,1671624867.608,531,153269,85665
43455,9638.44381508428,1671624867.608,531,153269,85665
43456,9638.450992716464,1671624867.608,531,153282,85661
43456,9638.458170348647,1671624867.608,531,153282,85661
43457,9638.465347980831,1671624867.608,530,153192,85673
43457,9638.472525613015,1671624867.608,530,153192,85673
43458,9638.479703245199,1671624867.706,531,153179,85688
43458,9638.486880877383,1671624867.706,531,153179,85688
43459,9638.494058509566,1671624867.706,530,153395,85703
43459,9638.50123614175,1671624867.706,530,153395,85703
43460,9638.508413773934,1671624867.706,530,153320,85713
43460,9638.515591406118,1671624867.706,530,153320,85713
43461,9638.522769038302,1671624867.706,531,153370,85711
43461,9638.529946670486,1671624867.706,531,153370,85711
43462,9638.55000017069,1671624867.706,530,153369,85731
43462,9638.557623403458,1671624867.706,530,153369,85731
43463,9638.565246636226,1671624867.706,533,153406,85764
43463,9638.572869868995,1671624867.706,533,153406,85764
43464,9638.580493101763,1671624867.797,533,153330,85784
43464,9638.588116334531,1671624867.797,533,153330,85784
43465,9638.5957395673,1671624867.797,530,153405,85765
43465,9638.603362800068,1671624867.797,530,153405,85765
43466,9638.610986032836,1671624867.797,531,153447,85804
43466,9638.618609265604,1671624867.797,531,153447,85804
43467,9638.626232498373,1671624867.797,530,153423,85804
43467,9638.633855731141,1671624867.797,530,153423,85804
43468,9638.64147896391,1671624867.797,528,153565,85852
43468,9638.649102196678,1671624867.797,528,153565,85852
43469,9638.656725429446,1671624867.797,529,153505,85814
43469,9638.664348662214,1671624867.797,529,153505,85814
43470,9638.671971894983,1671624867.884,530,153530,85786
43470,9638.67959512775,1671624867.884,530,153530,85786
43471,9638.68721836052,1671624867.884,529,153569,85819
43471,9638.694841593287,1671624867.884,529,153569,85819
43472,9638.70188946527,1671624867.884,530,153508,85808
43472,9638.708740081114,1671624867.884,530,153508,85808
43473,9638.715590696958,1671624867.884,529,153501,85755
43473,9638.722441312802,1671624867.884,529,153501,85755
43474,9638.729291928646,1671624867.884,529,153547,85764
43474,9638.73614254449,1671624867.884,529,153547,85764
43475,9638.742993160335,1671624867.884,529,153607,85738
43475,9638.749843776179,1671624867.884,529,153607,85738
43476,9638.756694392023,1671624867.973,528,153427,85699
43476,9638.763545007867,1671624867.973,528,153427,85699
43477,9638.770395623711,1671624867.973,529,153444,85684
43477,9638.777246239555,1671624867.973,529,153444,85684
43478,9638.7840968554,1671624867.973,529,153411,85689
43478,9638.790947471243,1671624867.973,529,153411,85689
43479,9638.797798087087,1671624867.973,531,153332,85649
43479,9638.804648702931,1671624867.973,531,153332,85649
43480,9638.811499318776,1671624867.973,532,153293,85643
43480,9638.81834993462,1671624867.973,532,153293,85643
43481,9638.825200550464,1671624867.973,530,153334,85656
43481,9638.832051166308,1671624867.973,530,153334,85656
43482,9638.849250764135,1671624868.075,531,153222,85667
43482,9638.856265266644,1671624868.075,531,153222,85667
43483,9638.863279769153,1671624868.075,530,153285,85672
43483,9638.870294271663,1671624868.075,530,153285,85672
43484,9638.877308774172,1671624868.075,530,153234,85660
43484,9638.884323276681,1671624868.075,530,153234,85660
43485,9638.89133777919,1671624868.075,530,153229,85625
43485,9638.8983522817,1671624868.075,530,153229,85625
43486,9638.905366784209,1671624868.075,530,153311,85666
43486,9638.912381286718,1671624868.075,530,153311,85666
43487,9638.919395789228,1671624868.075,531,153287,85673
43487,9638.926410291737,1671624868.075,531,153287,85673
43488,9638.933424794246,1671624868.174,532,153207,85664
43488,9638.940439296755,1671624868.174,532,153207,85664
43489,9638.947453799265,1671624868.174,531,153216,85664
43489,9638.954468301774,1671624868.174,531,153216,85664
43490,9638.961482804283,1671624868.174,532,153205,85677
43490,9638.968497306792,1671624868.174,532,153205,85677
43491,9638.975511809302,1671624868.174,531,153221,85655
43491,9638.982526311811,1671624868.174,531,153221,85655
43492,9639.017733747507,1671624868.174,529,153304,85669
43492,9639.02544733519,1671624868.174,529,153304,85669
43493,9639.033160922874,1671624868.174,529,153289,85694
43493,9639.040874510558,1671624868.174,529,153289,85694
43494,9639.048588098241,1671624868.269,530,153272,85667
43494,9639.056301685925,1671624868.269,530,153272,85667
43495,9639.064015273609,1671624868.269,532,153225,85641
43495,9639.071728861292,1671624868.269,532,153225,85641
43496,9639.079442448976,1671624868.269,531,153267,85649
43496,9639.08715603666,1671624868.269,531,153267,85649
43497,9639.094869624343,1671624868.269,530,153227,85626
43497,9639.102583212027,1671624868.269,530,153227,85626
43498,9639.11029679971,1671624868.269,529,153141,85566
43498,9639.118010387394,1671624868.269,529,153141,85566
43499,9639.125723975078,1671624868.269,531,153048,85591
43499,9639.133437562761,1671624868.269,531,153048,85591
43500,9639.141151150445,1671624868.358,528,153155,85569
43500,9639.148864738128,1671624868.358,528,153155,85569
43501,9639.156578325812,1671624868.358,530,153020,85534
43501,9639.164291913496,1671624868.358,530,153020,85534
43502,9639.174661222421,1671624868.358,530,152989,85547
43502,9639.181729414893,1671624868.358,530,152989,85547
43503,9639.188797607365,1671624868.358,532,152913,85493
43503,9639.195865799837,1671624868.358,532,152913,85493
43504,9639.202933992308,1671624868.358,530,153029,85510
43504,9639.21000218478,1671624868.358,530,153029,85510
43505,9639.217070377252,1671624868.358,530,153008,85493
43505,9639.224138569723,1671624868.358,530,153008,85493
43506,9639.231206762195,1671624868.46,530,153086,85514
43506,9639.238274954667,1671624868.46,530,153086,85514
43507,9639.245343147139,1671624868.46,528,152968,85538
43507,9639.25241133961,1671624868.46,528,152968,85538
43508,9639.259479532082,1671624868.46,527,153101,85531
43508,9639.266547724554,1671624868.46,527,153101,85531
43509,9639.273615917025,1671624868.46,530,153168,85545
43509,9639.280684109497,1671624868.46,530,153168,85545
43510,9639.287752301969,1671624868.46,529,153101,85585
43510,9639.29482049444,1671624868.46,529,153101,85585
43511,9639.301888686912,1671624868.46,530,153180,85604
43511,9639.308956879384,1671624868.46,530,153180,85604
43512,9639.336629415846,1671624868.558,530,153240,85627
43512,9639.344585973355,1671624868.558,530,153240,85627
43513,9639.352542530864,1671624868.558,531,153192,85622
43513,9639.360499088372,1671624868.558,531,153192,85622
43514,9639.368455645881,1671624868.558,529,153166,85623
43514,9639.37641220339,1671624868.558,529,153166,85623
43515,9639.384368760899,1671624868.558,527,153196,85624
43515,9639.392325318408,1671624868.558,527,153196,85624
43516,9639.400281875916,1671624868.558,527,153128,85625
43516,9639.408238433425,1671624868.558,527,153128,85625
43517,9639.416194990934,1671624868.558,530,153198,85601
43517,9639.424151548443,1671624868.558,530,153198,85601
43518,9639.432108105952,1671624868.632,529,153167,85573
43518,9639.44006466346,1671624868.632,529,153167,85573
43519,9639.44802122097,1671624868.632,529,153077,85563
43519,9639.455977778478,1671624868.632,529,153077,85563
43520,9639.463934335987,1671624868.632,530,153148,85575
43520,9639.471890893496,1671624868.632,530,153148,85575
43521,9639.479847451004,1671624868.632,528,153036,85520
43521,9639.487804008513,1671624868.632,528,153036,85520
43522,9639.482052531845,1671624868.632,527,152983,85491
43522,9639.487975722306,1671624868.632,527,152983,85491
43523,9639.493898912768,1671624868.632,530,152928,85475
43523,9639.49982210323,1671624868.632,530,152928,85475
43524,9639.50574529369,1671624868.733,528,152859,85472
43524,9639.511668484152,1671624868.733,528,152859,85472
43525,9639.517591674614,1671624868.733,529,152787,85453
43525,9639.523514865075,1671624868.733,529,152787,85453
43526,9639.529438055537,1671624868.733,528,152811,85400
43526,9639.535361245999,1671624868.733,528,152811,85400
43527,9639.54128443646,1671624868.733,530,152840,85418
43527,9639.547207626922,1671624868.733,530,152840,85418
43528,9639.553130817383,1671624868.733,529,152798,85419
43528,9639.559054007845,1671624868.733,529,152798,85419
43529,9639.564977198306,1671624868.733,531,152863,85417
43529,9639.570900388768,1671624868.733,531,152863,85417
43530,9639.57682357923,1671624868.83,530,152806,85411
43530,9639.58274676969,1671624868.83,530,152806,85411
43531,9639.588669960152,1671624868.83,529,152710,85386
43531,9639.594593150614,1671624868.83,529,152710,85386
43532,9639.641598863294,1671624868.83,528,152734,85406
43532,9639.649248576616,1671624868.83,528,152734,85406
43533,9639.656898289937,1671624868.83,529,152723,85402
43533,9639.664548003258,1671624868.83,529,152723,85402
43534,9639.67219771658,1671624868.83,527,152772,85420
43534,9639.679847429901,1671624868.83,527,152772,85420
43535,9639.687497143223,1671624868.83,529,152680,85367
43535,9639.695146856544,1671624868.83,529,152680,85367
43536,9639.702796569865,1671624868.922,531,152649,85372
43536,9639.710446283187,1671624868.922,531,152649,85372
43537,9639.718095996508,1671624868.922,530,152676,85376
43537,9639.72574570983,1671624868.922,530,152676,85376
43538,9639.73339542315,1671624868.922,529,152710,85394
43538,9639.741045136472,1671624868.922,529,152710,85394
43539,9639.748694849794,1671624868.922,528,152763,85392
43539,9639.756344563115,1671624868.922,528,152763,85392
43540,9639.763994276436,1671624868.922,528,152616,85382
43540,9639.771643989758,1671624868.922,528,152616,85382
43541,9639.779293703079,1671624868.922,529,152597,85371
43541,9639.7869434164,1671624868.922,529,152597,85371
43542,9639.798602260173,1671624869.01,529,152607,85313
43542,9639.80586180604,1671624869.01,529,152607,85313
43543,9639.813121351908,1671624869.01,529,152607,85344
43543,9639.820380897776,1671624869.01,529,152607,85344
43544,9639.827640443644,1671624869.01,530,152492,85322
43544,9639.834899989512,1671624869.01,530,152492,85322
43545,9639.84215953538,1671624869.01,528,152654,85348
43545,9639.849419081247,1671624869.01,528,152654,85348
43546,9639.856678627115,1671624869.01,527,152620,85329
43546,9639.863938172983,1671624869.01,527,152620,85329
43547,9639.87119771885,1671624869.01,527,152679,85377
43547,9639.878457264718,1671624869.01,527,152679,85377
43548,9639.885716810586,1671624869.107,526,152630,85365
43548,9639.892976356454,1671624869.107,526,152630,85365
43549,9639.900235902322,1671624869.107,526,152614,85345
43549,9639.90749544819,1671624869.107,526,152614,85345
43550,9639.914754994057,1671624869.107,526,152698,85407
43550,9639.922014539925,1671624869.107,526,152698,85407
43551,9639.929274085793,1671624869.107,527,152641,85377
43551,9639.93653363166,1671624869.107,527,152641,85377
43552,9639.95103441207,1671624869.107,528,152651,85384
43552,9639.958522518613,1671624869.107,528,152651,85384
43553,9639.966010625156,1671624869.107,527,152623,85376
43553,9639.973498731699,1671624869.107,527,152623,85376
43554,9639.980986838242,1671624869.206,528,152623,85308
43554,9639.988474944785,1671624869.206,528,152623,85308
43555,9639.995963051328,1671624869.206,526,152643,85320
43555,9640.00345115787,1671624869.206,526,152643,85320
43556,9640.010939264414,1671624869.206,525,152605,85321
43556,9640.018427370956,1671624869.206,525,152605,85321
43557,9640.0259154775,1671624869.206,527,152656,85308
43557,9640.033403584042,1671624869.206,527,152656,85308
43558,9640.040891690585,1671624869.206,526,152650,85271
43558,9640.048379797128,1671624869.206,526,152650,85271
43559,9640.055867903671,1671624869.206,525,152602,85260
43559,9640.063356010214,1671624869.206,525,152602,85260
43560,9640.070844116757,1671624869.296,527,152630,85235
43560,9640.0783322233,1671624869.296,527,152630,85235
43561,9640.085820329843,1671624869.296,528,152547,85189
43561,9640.093308436386,1671624869.296,528,152547,85189
43562,9640.112095656283,1671624869.296,527,152617,85223
43562,9640.119335095307,1671624869.296,527,152617,85223
43563,9640.126574534332,1671624869.296,525,152567,85202
43563,9640.133813973356,1671624869.296,525,152567,85202
43564,9640.14105341238,1671624869.296,525,152566,85220
43564,9640.148292851405,1671624869.296,525,152566,85220
43565,9640.15553229043,1671624869.296,526,152611,85205
43565,9640.162771729454,1671624869.296,526,152611,85205
43566,9640.170011168479,1671624869.387,527,152444,85204
43566,9640.177250607503,1671624869.387,527,152444,85204
43567,9640.184490046528,1671624869.387,527,152485,85170
43567,9640.191729485552,1671624869.387,527,152485,85170
43568,9640.198968924577,1671624869.387,528,152499,85186
43568,9640.206208363601,1671624869.387,528,152499,85186
43569,9640.213447802626,1671624869.387,527,152445,85164
43569,9640.22068724165,1671624869.387,527,152445,85164
43570,9640.227926680674,1671624869.387,527,152388,85161
43570,9640.235166119699,1671624869.387,527,152388,85161
43571,9640.242405558723,1671624869.387,527,152322,85160
43571,9640.249644997748,1671624869.387,527,152322,85160
43572,9640.263256040387,1671624869.485,527,152273,85139
43572,9640.270399167719,1671624869.485,527,152273,85139
43573,9640.27754229505,1671624869.485,525,152215,85156
43573,9640.284685422383,1671624869.485,525,152215,85156
43574,9640.291828549714,1671624869.485,527,152234,85145
43574,9640.298971677046,1671624869.485,527,152234,85145
43575,9640.306114804378,1671624869.485,527,152312,85135
43575,9640.31325793171,1671624869.485,527,152312,85135
43576,9640.320401059042,1671624869.485,527,152359,85147
43576,9640.327544186373,1671624869.485,527,152359,85147
43577,9640.334687313705,1671624869.485,527,152194,85130
43577,9640.341830441037,1671624869.485,527,152194,85130
43578,9640.348973568369,1671624869.577,528,152126,85125
43578,9640.3561166957,1671624869.577,528,152126,85125
43579,9640.363259823032,1671624869.577,525,152185,85134
43579,9640.370402950364,1671624869.577,525,152185,85134
43580,9640.377546077696,1671624869.577,525,152215,85119
43580,9640.384689205028,1671624869.577,525,152215,85119
43581,9640.39183233236,1671624869.577,527,152133,85106
43581,9640.398975459691,1671624869.577,527,152133,85106
43582,9640.422404646455,1671624869.577,526,152206,85139
43582,9640.429650449822,1671624869.577,526,152206,85139
43583,9640.436896253188,1671624869.577,527,152080,85118
43583,9640.444142056554,1671624869.577,527,152080,85118
43584,9640.451387859921,1671624869.689,527,152204,85143
43584,9640.458633663287,1671624869.689,527,152204,85143
43585,9640.465879466654,1671624869.689,526,152109,85115
43585,9640.47312527002,1671624869.689,526,152109,85115
43586,9640.480371073387,1671624869.689,525,152108,85121
43586,9640.487616876753,1671624869.689,525,152108,85121
43587,9640.49486268012,1671624869.689,526,152071,85137
43587,9640.502108483486,1671624869.689,526,152071,85137
43588,9640.509354286853,1671624869.689,525,152071,85116
43588,9640.516600090219,1671624869.689,525,152071,85116
43589,9640.523845893586,1671624869.689,526,152030,85127
43589,9640.531091696952,1671624869.689,526,152030,85127
43590,9640.538337500318,1671624869.758,529,152054,85094
43590,9640.545583303685,1671624869.758,529,152054,85094
43591,9640.552829107051,1671624869.758,527,152005,85121
43591,9640.560074910418,1671624869.758,527,152005,85121
43592,9640.587610039292,1671624869.758,527,152076,85148
43592,9640.593981793116,1671624869.758,527,152076,85148
43593,9640.600353546939,1671624869.758,526,152175,85162
43593,9640.606725300762,1671624869.758,526,152175,85162
43594,9640.613097054586,1671624869.758,526,152015,85141
43594,9640.619468808409,1671624869.758,526,152015,85141
43595,9640.625840562232,1671624869.758,524,152096,85129
43595,9640.632212316055,1671624869.758,524,152096,85129
43596,9640.638584069879,1671624869.853,526,152189,85176
43596,9640.644955823702,1671624869.853,526,152189,85176
43597,9640.651327577525,1671624869.853,524,152066,85121
43597,9640.657699331348,1671624869.853,524,152066,85121
43598,9640.664071085172,1671624869.853,526,152128,85154
43598,9640.670442838995,1671624869.853,526,152128,85154
43599,9640.676814592818,1671624869.853,527,152044,85126
43599,9640.683186346641,1671624869.853,527,152044,85126
43600,9640.689558100465,1671624869.853,526,152134,85147
43600,9640.695929854288,1671624869.853,526,152134,85147
43601,9640.702301608111,1671624869.853,528,152049,85113
43601,9640.708673361934,1671624869.853,528,152049,85113
43602,9640.72889063699,1671624869.956,526,152178,85138
43602,9640.736271146508,1671624869.956,526,152178,85138
43603,9640.743651656026,1671624869.956,527,152103,85093
43603,9640.751032165545,1671624869.956,527,152103,85093
43604,9640.758412675063,1671624869.956,525,152174,85089
43604,9640.76579318458,1671624869.956,525,152174,85089
43605,9640.773173694099,1671624869.956,525,152133,85083
43605,9640.780554203617,1671624869.956,525,152133,85083
43606,9640.787934713135,1671624869.956,527,152097,85095
43606,9640.795315222653,1671624869.956,527,152097,85095
43607,9640.80269573217,1671624869.956,529,152109,85107
43607,9640.810076241689,1671624869.956,529,152109,85107
43608,9640.817456751207,1671624870.06,527,152198,85119
43608,9640.824837260725,1671624870.06,527,152198,85119
43609,9640.832217770243,1671624870.06,527,152172,85133
43609,9640.839598279761,1671624870.06,527,152172,85133
43610,9640.84697878928,1671624870.06,528,152188,85142
43610,9640.854359298797,1671624870.06,528,152188,85142
43611,9640.861739808315,1671624870.06,525,152226,85132
43611,9640.869120317833,1671624870.06,525,152226,85132
43612,9640.902482866288,1671624870.06,526,152178,85146
43612,9640.910579841173,1671624870.06,526,152178,85146
43613,9640.918676816058,1671624870.06,526,152248,85150
43613,9640.926773790943,1671624870.06,526,152248,85150
43614,9640.934870765828,1671624870.138,526,152158,85139
43614,9640.942967740713,1671624870.138,526,152158,85139
43615,9640.951064715598,1671624870.138,527,152162,85130
43615,9640.959161690484,1671624870.138,527,152162,85130
43616,9640.967258665369,1671624870.138,527,152100,85127
43616,9640.975355640254,1671624870.138,527,152100,85127
43617,9640.983452615139,1671624870.138,528,151923,85108
43617,9640.991549590024,1671624870.138,528,151923,85108
43618,9640.99964656491,1671624870.138,526,152013,85113
43618,9641.007743539794,1671624870.138,526,152013,85113
43619,9641.01584051468,1671624870.138,524,152038,85115
43619,9641.023937489565,1671624870.138,524,152038,85115
43620,9641.03203446445,1671624870.235,525,151843,85096
43620,9641.040131439335,1671624870.235,525,151843,85096
43621,9641.04822841422,1671624870.235,527,151988,85111
43621,9641.056325389105,1671624870.235,527,151988,85111
43622,9641.045995533406,1671624870.235,526,151941,85131
43622,9641.053108570308,1671624870.235,526,151941,85131
43623,9641.06022160721,1671624870.235,526,151832,85083
43623,9641.06733464411,1671624870.235,526,151832,85083
43624,9641.074447681012,1671624870.235,525,151836,85080
43624,9641.081560717914,1671624870.235,525,151836,85080
43625,9641.088673754815,1671624870.235,526,151811,85065
43625,9641.095786791717,1671624870.235,526,151811,85065
43626,9641.102899828618,1671624870.328,524,151867,85085
43626,9641.11001286552,1671624870.328,524,151867,85085
43627,9641.117125902421,1671624870.328,523,151917,85063
43627,9641.124238939323,1671624870.328,523,151917,85063
43628,9641.131351976224,1671624870.328,525,151797,85040
43628,9641.138465013126,1671624870.328,525,151797,85040
43629,9641.145578050027,1671624870.328,524,151738,85039
43629,9641.152691086929,1671624870.328,524,151738,85039
43630,9641.15980412383,1671624870.328,524,151761,85050
43630,9641.166917160732,1671624870.328,524,151761,85050
43631,9641.174030197633,1671624870.328,526,151694,85046
43631,9641.181143234535,1671624870.328,526,151694,85046
43632,9641.203842629886,1671624870.426,524,151677,85049
43632,9641.211123667952,1671624870.426,524,151677,85049
43633,9641.218404706018,1671624870.426,524,151738,85065
43633,9641.225685744084,1671624870.426,524,151738,85065
43634,9641.23296678215,1671624870.426,522,151763,85077
43634,9641.240247820217,1671624870.426,522,151763,85077
43635,9641.247528858283,1671624870.426,522,151743,85067
43635,9641.254809896349,1671624870.426,522,151743,85067
43636,9641.262090934415,1671624870.426,524,151726,85077
43636,9641.269371972481,1671624870.426,524,151726,85077
43637,9641.276653010547,1671624870.426,522,151737,85079
43637,9641.283934048613,1671624870.426,522,151737,85079
43638,9641.29121508668,1671624870.514,525,151660,85050
43638,9641.298496124746,1671624870.514,525,151660,85050
43639,9641.305777162812,1671624870.514,525,151791,85084
43639,9641.313058200878,1671624870.514,525,151791,85084
43640,9641.320339238944,1671624870.514,525,151687,85072
43640,9641.32762027701,1671624870.514,525,151687,85072
43641,9641.334901315076,1671624870.514,526,151769,85065
43641,9641.342182353143,1671624870.514,526,151769,85065
43642,9641.360066519872,1671624870.514,524,151754,85052
43642,9641.366965101855,1671624870.514,524,151754,85052
43643,9641.373863683839,1671624870.514,523,151690,85022
43643,9641.380762265822,1671624870.514,523,151690,85022
43644,9641.387660847806,1671624870.607,524,151769,85040
43644,9641.39455942979,1671624870.607,524,151769,85040
43645,9641.401458011773,1671624870.607,523,151770,85017
43645,9641.408356593756,1671624870.607,523,151770,85017
43646,9641.41525517574,1671624870.607,523,151686,85006
43646,9641.422153757723,1671624870.607,523,151686,85006
43647,9641.429052339707,1671624870.607,524,151646,84987
43647,9641.43595092169,1671624870.607,524,151646,84987
43648,9641.442849503674,1671624870.607,525,151806,85054
43648,9641.449748085657,1671624870.607,525,151806,85054
43649,9641.45664666764,1671624870.607,525,151637,85023
43649,9641.463545249624,1671624870.607,525,151637,85023
43650,9641.470443831608,1671624870.714,525,151799,85056
43650,9641.477342413591,1671624870.714,525,151799,85056
43651,9641.484240995575,1671624870.714,523,151686,85056
43651,9641.491139577558,1671624870.714,523,151686,85056
43652,9641.519357349714,1671624870.714,523,151761,85053
43652,9641.527387717506,1671624870.714,523,151761,85053
43653,9641.535418085297,1671624870.714,525,151734,85074
43653,9641.543448453089,1671624870.714,525,151734,85074
43654,9641.55147882088,1671624870.714,524,151734,85067
43654,9641.559509188672,1671624870.714,524,151734,85067
43655,9641.567539556463,1671624870.714,525,151734,85082
43655,9641.575569924255,1671624870.714,525,151734,85082
43656,9641.583600292046,1671624870.797,525,151706,85058
43656,9641.591630659837,1671624870.797,525,151706,85058
43657,9641.599661027629,1671624870.797,524,151717,85087
43657,9641.60769139542,1671624870.797,524,151717,85087
43658,9641.615721763212,1671624870.797,525,151693,85093
43658,9641.623752131003,1671624870.797,525,151693,85093
43659,9641.631782498795,1671624870.797,524,151636,85088
43659,9641.639812866586,1671624870.797,524,151636,85088
43660,9641.647843234377,1671624870.797,524,151555,85082
43660,9641.655873602169,1671624870.797,524,151555,85082
43661,9641.66390396996,1671624870.797,524,151463,85053
43661,9641.671934337752,1671624870.797,524,151463,85053
43662,9641.672553190672,1671624870.888,527,151511,85070
43662,9641.67910966462,1671624870.888,527,151511,85070
43663,9641.685666138566,1671624870.888,526,151414,85075
43663,9641.692222612513,1671624870.888,526,151414,85075
43664,9641.69877908646,1671624870.888,526,151441,85090
43664,9641.705335560408,1671624870.888,526,151441,85090
43665,9641.711892034355,1671624870.888,526,151384,85085
43665,9641.718448508302,1671624870.888,526,151384,85085
43666,9641.725004982249,1671624870.888,524,151434,85071
43666,9641.731561456196,1671624870.888,524,151434,85071
43667,9641.738117930143,1671624870.888,526,151247,85077
43667,9641.74467440409,1671624870.888,526,151247,85077
43668,9641.751230878037,1671624870.988,525,151230,85048
43668,9641.757787351984,1671624870.988,525,151230,85048
43669,9641.764343825931,1671624870.988,525,151282,85063
43669,9641.770900299878,1671624870.988,525,151282,85063
43670,9641.777456773825,1671624870.988,526,151176,85058
43670,9641.784013247772,1671624870.988,526,151176,85058
43671,9641.79056972172,1671624870.988,525,151242,85078
43671,9641.797126195666,1671624870.988,525,151242,85078
43672,9641.831072973357,1671624870.988,526,151251,85085
43672,9641.838818782335,1671624870.988,526,151251,85085
43673,9641.846564591313,1671624870.988,525,151201,85094
43673,9641.854310400291,1671624870.988,525,151201,85094
43674,9641.86205620927,1671624871.1,524,151171,85103
43674,9641.869802018247,1671624871.1,524,151171,85103
43675,9641.877547827225,1671624871.1,524,151268,85130
43675,9641.885293636204,1671624871.1,524,151268,85130
43676,9641.893039445182,1671624871.1,524,151320,85158
43676,9641.90078525416,1671624871.1,524,151320,85158
43677,9641.908531063138,1671624871.1,523,151244,85139
43677,9641.916276872116,1671624871.1,523,151244,85139
43678,9641.924022681094,1671624871.1,526,151239,85155
43678,9641.931768490072,1671624871.1,526,151239,85155
43679,9641.93951429905,1671624871.1,526,151261,85135
43679,9641.947260108029,1671624871.1,526,151261,85135
43680,9641.955005917007,1671624871.173,524,151222,85112
43680,9641.962751725985,1671624871.173,524,151222,85112
43681,9641.970497534963,1671624871.173,524,151267,85159
43681,9641.978243343941,1671624871.173,524,151267,85159
43682,9642.000306110915,1671624871.173,523,151251,85125
43682,9642.00694173276,1671624871.173,523,151251,85125
43683,9642.013577354604,1671624871.173,525,151216,85113
43683,9642.02021297645,1671624871.173,525,151216,85113
43684,9642.026848598294,1671624871.173,523,151241,85118
43684,9642.03348422014,1671624871.173,523,151241,85118
43685,9642.040119841984,1671624871.173,526,151217,85093
43685,9642.046755463829,1671624871.173,526,151217,85093
43686,9642.053391085674,1671624871.268,525,151111,85090
43686,9642.060026707519,1671624871.268,525,151111,85090
43687,9642.066662329364,1671624871.268,527,151147,85055
43687,9642.073297951209,1671624871.268,527,151147,85055
43688,9642.079933573053,1671624871.268,526,151243,85100
43688,9642.086569194898,1671624871.268,526,151243,85100
43689,9642.093204816743,1671624871.268,525,151178,85095
43689,9642.099840438588,1671624871.268,525,151178,85095
43690,9642.106476060433,1671624871.268,524,151232,85094
43690,9642.113111682278,1671624871.268,524,151232,85094
43691,9642.119747304123,1671624871.268,525,151173,85099
43691,9642.126382925968,1671624871.268,525,151173,85099
43692,9642.144415459945,1671624871.357,525,151281,85110
43692,9642.151801383981,1671624871.357,525,151281,85110
43693,9642.159187308018,1671624871.357,525,151216,85097
43693,9642.166573232054,1671624871.357,525,151216,85097
43694,9642.17395915609,1671624871.357,527,151206,85103
43694,9642.181345080127,1671624871.357,527,151206,85103
43695,9642.188731004164,1671624871.357,527,151291,85115
43695,9642.1961169282,1671624871.357,527,151291,85115
43696,9642.203502852237,1671624871.357,527,151240,85120
43696,9642.210888776273,1671624871.357,527,151240,85120
43697,9642.21827470031,1671624871.357,528,151274,85140
43697,9642.225660624346,1671624871.357,528,151274,85140
43698,9642.233046548383,1671624871.458,526,151240,85132
43698,9642.24043247242,1671624871.458,526,151240,85132
43699,9642.247818396456,1671624871.458,526,151293,85162
43699,9642.255204320492,1671624871.458,526,151293,85162
43700,9642.262590244529,1671624871.458,527,151320,85163
43700,9642.269976168565,1671624871.458,527,151320,85163
43701,9642.277362092602,1671624871.458,526,151289,85156
43701,9642.284748016638,1671624871.458,526,151289,85156
43702,9642.301426949982,1671624871.458,526,151389,85171
43702,9642.309287770935,1671624871.458,526,151389,85171
43703,9642.317148591888,1671624871.458,527,151246,85155
43703,9642.325009412842,1671624871.458,527,151246,85155
43704,9642.332870233795,1671624871.549,527,151189,85153
43704,9642.340731054748,1671624871.549,527,151189,85153
43705,9642.348591875701,1671624871.549,527,151197,85158
43705,9642.356452696655,1671624871.549,527,151197,85158
43706,9642.364313517608,1671624871.549,527,151200,85158
43706,9642.372174338561,1671624871.549,527,151200,85158
43707,9642.380035159515,1671624871.549,526,151144,85150
43707,9642.387895980468,1671624871.549,526,151144,85150
43708,9642.395756801421,1671624871.549,525,151037,85139
43708,9642.403617622374,1671624871.549,525,151037,85139
43709,9642.411478443328,1671624871.549,525,150945,85147
43709,9642.419339264281,1671624871.549,525,150945,85147
43710,9642.427200085234,1671624871.638,528,150943,85118
43710,9642.435060906188,1671624871.638,528,150943,85118
43711,9642.44292172714,1671624871.638,528,150895,85128
43711,9642.450782548094,1671624871.638,528,150895,85128
43712,9642.454465931118,1671624871.638,527,150897,85141
43712,9642.461441614747,1671624871.638,527,150897,85141
43713,9642.468417298376,1671624871.638,527,150931,85130
43713,9642.475392982005,1671624871.638,527,150931,85130
43714,9642.482368665635,1671624871.638,526,150854,85148
43714,9642.489344349264,1671624871.638,526,150854,85148
43715,9642.496320032893,1671624871.638,525,150934,85151
43715,9642.503295716522,1671624871.638,525,150934,85151
43716,9642.510271400151,1671624871.736,524,150888,85136
43716,9642.51724708378,1671624871.736,524,150888,85136
43717,9642.52422276741,1671624871.736,526,150862,85153
43717,9642.531198451039,1671624871.736,526,150862,85153
43718,9642.538174134668,1671624871.736,527,150856,85152
43718,9642.545149818297,1671624871.736,527,150856,85152
43719,9642.552125501927,1671624871.736,527,150940,85163
43719,9642.559101185556,1671624871.736,527,150940,85163
43720,9642.566076869185,1671624871.736,525,150818,85146
43720,9642.573052552814,1671624871.736,525,150818,85146
43721,9642.580028236443,1671624871.736,527,150818,85123
43721,9642.587003920073,1671624871.736,527,150818,85123
43722,9642.612223589773,1671624871.826,527,150720,85108
43722,9642.619860201039,1671624871.826,527,150720,85108
43723,9642.627496812305,1671624871.826,526,150802,85104
43723,9642.635133423571,1671624871.826,526,150802,85104
43724,9642.642770034838,1671624871.826,525,150786,85113
43724,9642.650406646104,1671624871.826,525,150786,85113
43725,9642.65804325737,1671624871.826,526,150781,85078
43725,9642.665679868636,1671624871.826,526,150781,85078
43726,9642.673316479902,1671624871.826,526,150730,85106
43726,9642.680953091169,1671624871.826,526,150730,85106
43727,9642.688589702435,1671624871.826,529,150753,85096
43727,9642.696226313701,1671624871.826,529,150753,85096
43728,9642.703862924967,1671624871.927,526,150747,85103
43728,9642.711499536234,1671624871.927,526,150747,85103
43729,9642.7191361475,1671624871.927,526,150743,85103
43729,9642.726772758766,1671624871.927,526,150743,85103
43730,9642.734409370032,1671624871.927,526,150786,85103
43730,9642.742045981298,1671624871.927,526,150786,85103
43731,9642.749682592565,1671624871.927,525,150680,85094
43731,9642.75731920383,1671624871.927,525,150680,85094
43732,9642.770332990909,1671624871.927,525,150684,85001
43732,9642.778218252979,1671624871.927,525,150684,85001
43733,9642.786103515049,1671624871.927,522,150672,84847
43733,9642.793988777119,1671624871.927,522,150672,84847
43734,9642.801874039189,1671624872.015,521,150661,84565
43734,9642.809759301259,1671624872.015,521,150661,84565
43735,9642.817644563329,1671624872.015,521,150727,84355
43735,9642.825529825399,1671624872.015,521,150727,84355
43736,9642.833415087469,1671624872.015,520,150782,84135
43736,9642.841300349539,1671624872.015,520,150782,84135
43737,9642.849185611609,1671624872.015,518,150811,83946
43737,9642.857070873679,1671624872.015,518,150811,83946
43738,9642.864956135749,1671624872.015,516,150817,83736
43738,9642.872841397819,1671624872.015,516,150817,83736
43739,9642.880726659889,1671624872.015,516,150966,83593
43739,9642.888611921959,1671624872.015,516,150966,83593
43740,9642.896497184029,1671624872.107,514,151079,83499
43740,9642.904382446099,1671624872.107,514,151079,83499
43741,9642.912267708169,1671624872.107,514,151093,83421
43741,9642.920152970239,1671624872.107,514,151093,83421
43742,9642.921381417707,1671624872.107,515,151117,83358
43742,9642.928497283236,1671624872.107,515,151117,83358
43743,9642.935613148764,1671624872.107,512,151029,83306
43743,9642.942729014292,1671624872.107,512,151029,83306
43744,9642.94984487982,1671624872.107,514,151139,83291
43744,9642.956960745349,1671624872.107,514,151139,83291
43745,9642.964076610877,1671624872.107,515,151133,83295
43745,9642.971192476405,1671624872.107,515,151133,83295
43746,9642.978308341933,1671624872.208,514,151180,83308
43746,9642.985424207462,1671624872.208,514,151180,83308
43747,9642.99254007299,1671624872.208,512,151056,83286
43747,9642.999655938518,1671624872.208,512,151056,83286
43748,9643.006771804046,1671624872.208,511,151137,83308
43748,9643.013887669575,1671624872.208,511,151137,83308
43749,9643.021003535103,1671624872.208,512,151068,83278
43749,9643.028119400631,1671624872.208,512,151068,83278
43750,9643.03523526616,1671624872.208,515,151122,83258
43750,9643.042351131688,1671624872.208,515,151122,83258
43751,9643.049466997216,1671624872.208,514,151088,83252
43751,9643.056582862744,1671624872.208,514,151088,83252
43752,9643.0847736013,1671624872.296,514,151039,83225
43752,9643.09262735719,1671624872.296,514,151039,83225
43753,9643.100481113079,1671624872.296,515,151041,83226
43753,9643.108334868968,1671624872.296,515,151041,83226
43754,9643.116188624857,1671624872.296,512,150952,83188
43754,9643.124042380747,1671624872.296,512,150952,83188
43755,9643.131896136636,1671624872.296,515,150925,83189
43755,9643.139749892525,1671624872.296,515,150925,83189
43756,9643.147603648415,1671624872.296,515,150925,83203
43756,9643.155457404304,1671624872.296,515,150925,83203
43757,9643.163311160193,1671624872.296,514,150894,83167
43757,9643.171164916082,1671624872.296,514,150894,83167
43758,9643.179018671972,1671624872.39,516,150776,83156
43758,9643.186872427861,1671624872.39,516,150776,83156
43759,9643.19472618375,1671624872.39,517,150804,83126
43759,9643.20257993964,1671624872.39,517,150804,83126
43760,9643.210433695529,1671624872.39,515,150799,83125
43760,9643.218287451418,1671624872.39,515,150799,83125
43761,9643.226141207308,1671624872.39,514,150787,83095
43761,9643.233994963197,1671624872.39,514,150787,83095
43762,9643.234398935443,1671624872.39,515,150759,83034
43762,9643.241683407214,1671624872.39,515,150759,83034
43763,9643.248967878984,1671624872.39,511,150730,83002
43763,9643.256252350755,1671624872.39,511,150730,83002
43764,9643.263536822526,1671624872.477,514,150604,82989
43764,9643.270821294296,1671624872.477,514,150604,82989
43765,9643.278105766067,1671624872.477,512,150756,83004
43765,9643.285390237837,1671624872.477,512,150756,83004
43766,9643.292674709608,1671624872.477,516,150660,82986
43766,9643.299959181379,1671624872.477,516,150660,82986
43767,9643.30724365315,1671624872.477,514,150789,83018
43767,9643.31452812492,1671624872.477,514,150789,83018
43768,9643.32181259669,1671624872.477,515,150590,82986
43768,9643.329097068461,1671624872.477,515,150590,82986
43769,9643.336381540232,1671624872.477,515,150579,83016
43769,9643.343666012002,1671624872.477,515,150579,83016
43770,9643.350950483773,1671624872.58,514,150596,83100
43770,9643.358234955544,1671624872.58,514,150596,83100
43771,9643.365519427314,1671624872.58,516,150389,83174
43771,9643.372803899085,1671624872.58,516,150389,83174
43772,9643.387452198212,1671624872.58,516,150288,83254
43772,9643.395146143626,1671624872.58,516,150288,83254
43773,9643.40284008904,1671624872.58,516,150172,83292
43773,9643.410534034454,1671624872.58,516,150172,83292
43774,9643.418227979868,1671624872.58,519,150081,83336
43774,9643.425921925282,1671624872.58,519,150081,83336
43775,9643.433615870696,1671624872.58,521,150132,83354
43775,9643.44130981611,1671624872.58,521,150132,83354
43776,9643.449003761523,1671624872.676,520,150166,83372
43776,9643.456697706937,1671624872.676,520,150166,83372
43777,9643.464391652351,1671624872.676,522,150219,83422
43777,9643.472085597765,1671624872.676,522,150219,83422
43778,9643.479779543179,1671624872.676,522,150182,83510
43778,9643.487473488593,1671624872.676,522,150182,83510
43779,9643.495167434006,1671624872.676,523,150241,83643
43779,9643.50286137942,1671624872.676,523,150241,83643
43780,9643.510555324834,1671624872.676,526,150364,83837
43780,9643.518249270248,1671624872.676,526,150364,83837
43781,9643.525943215662,1671624872.676,528,150412,84009
43781,9643.533637161076,1671624872.676,528,150412,84009
43782,9643.55222939293,1671624872.764,530,150462,84169
43782,9643.559732052483,1671624872.764,530,150462,84169
43783,9643.567234712036,1671624872.764,534,150362,84223
43783,9643.57473737159,1671624872.764,534,150362,84223
43784,9643.582240031143,1671624872.764,534,150283,84274
43784,9643.589742690696,1671624872.764,534,150283,84274
43785,9643.597245350249,1671624872.764,534,150139,84289
43785,9643.604748009802,1671624872.764,534,150139,84289
43786,9643.612250669355,1671624872.764,533,150170,84315
43786,9643.619753328909,1671624872.764,533,150170,84315
43787,9643.627255988462,1671624872.764,533,150166,84266
43787,9643.634758648015,1671624872.764,533,150166,84266
43788,9643.642261307568,1671624872.863,533,150113,84247
43788,9643.649763967122,1671624872.863,533,150113,84247
43789,9643.657266626675,1671624872.863,533,150119,84251
43789,9643.664769286228,1671624872.863,533,150119,84251
43790,9643.672271945781,1671624872.863,534,150150,84270
