id,lsl_ts,unix_ts,ambient,ir,red
181788,13644.221057416667,1671628873.369,517,111891,64412
181788,13644.221057416667,1671628873.369,517,111891,64412
181789,13644.223775033333,1671628873.369,516,124598,65304
181789,13644.223775033333,1671628873.369,516,124598,65304
181790,13644.22649265,1671628873.369,514,124647,65304
181790,13644.22649265,1671628873.369,514,124647,65304
181791,13644.229210266667,1671628873.369,515,124581,65283
181791,13644.229210266667,1671628873.369,515,124581,65283
181792,13644.231927883335,1671628873.369,515,124568,65272
181792,13644.231927883335,1671628873.369,515,124568,65272
181793,13644.2346455,1671628873.369,515,124532,65264
181793,13644.2346455,1671628873.369,515,124532,65264
181794,13644.2443003,1671628873.426,516,124585,65247
181794,13644.2443003,1671628873.426,516,124585,65247
181795,13644.2539551,1671628873.426,515,124632,65255
181795,13644.2539551,1671628873.426,515,124632,65255
181796,13644.263609900001,1671628873.426,515,124580,65252
181796,13644.263609900001,1671628873.426,515,124580,65252
181797,13644.2732647,1671628873.426,515,124538,65234
181797,13644.2732647,1671628873.426,515,124538,65234
181798,13644.2829195,1671628873.426,515,124522,65255
181798,13644.2829195,1671628873.426,515,124522,65255
181799,13644.2925743,1671628873.426,515,124621,65263
181799,13644.2925743,1671628873.426,515,124621,65263
181800,13644.305862583333,1671628873.506,515,124506,65234
181800,13644.305862583333,1671628873.506,515,124506,65234
181801,13644.319150866666,1671628873.506,516,124543,65257
181801,13644.319150866666,1671628873.506,516,124543,65257
181802,13644.33243915,1671628873.506,514,124612,65250
181802,13644.33243915,1671628873.506,514,124612,65250
181803,13644.345727433334,1671628873.506,514,124630,65250
181803,13644.345727433334,1671628873.506,514,124630,65250
181804,13644.359015716667,1671628873.506,512,124638,65251
181804,13644.359015716667,1671628873.506,512,124638,65251
181805,13644.372304,1671628873.506,514,124607,65237
181805,13644.372304,1671628873.506,514,124607,65237
181806,13644.3881076,1671628873.601,512,124615,65275
181806,13644.3881076,1671628873.601,512,124615,65275
181807,13644.403911200001,1671628873.601,515,124588,65278
181807,13644.403911200001,1671628873.601,515,124588,65278
181808,13644.4197148,1671628873.601,515,124631,65276
181808,13644.4197148,1671628873.601,515,124631,65276
181809,13644.4355184,1671628873.601,514,124649,65265
181809,13644.4355184,1671628873.601,514,124649,65265
181810,13644.451322,1671628873.601,514,124642,65275
181810,13644.451322,1671628873.601,514,124642,65275
181811,13644.4671256,1671628873.601,515,124717,65303
181811,13644.4671256,1671628873.601,515,124717,65303
181812,13644.483164683334,1671628873.697,512,124696,65279
181812,13644.483164683334,1671628873.697,512,124696,65279
181813,13644.499203766667,1671628873.697,511,124721,65281
181813,13644.499203766667,1671628873.697,511,124721,65281
181814,13644.51524285,1671628873.697,512,124638,65269
181814,13644.51524285,1671628873.697,512,124638,65269
181815,13644.531281933334,1671628873.697,514,124671,65256
181815,13644.531281933334,1671628873.697,514,124671,65256
181816,13644.547321016667,1671628873.697,514,124600,65254
181816,13644.547321016667,1671628873.697,514,124600,65254
181817,13644.5633601,1671628873.697,512,124553,65209
181817,13644.5633601,1671628873.697,512,124553,65209
181818,13644.578470983333,1671628873.788,514,124531,65193
181818,13644.578470983333,1671628873.788,514,124531,65193
181819,13644.593581866668,1671628873.788,514,124441,65202
181819,13644.593581866668,1671628873.788,514,124441,65202
181820,13644.60869275,1671628873.788,511,124483,65190
181820,13644.60869275,1671628873.788,511,124483,65190
181821,13644.623803633332,1671628873.788,514,124509,65206
181821,13644.623803633332,1671628873.788,514,124509,65206
181822,13644.638914516667,1671628873.788,511,124453,65206
181822,13644.638914516667,1671628873.788,511,124453,65206
181823,13644.6540254,1671628873.788,511,124466,65202
181823,13644.6540254,1671628873.788,511,124466,65202
181824,13644.670514866666,1671628873.887,514,124428,65181
181824,13644.670514866666,1671628873.887,514,124428,65181
181825,13644.687004333333,1671628873.887,511,124457,65178
181825,13644.687004333333,1671628873.887,511,124457,65178
181826,13644.7034938,1671628873.887,515,124428,65193
181826,13644.7034938,1671628873.887,515,124428,65193
181827,13644.719983266667,1671628873.887,514,124437,65197
181827,13644.719983266667,1671628873.887,514,124437,65197
181828,13644.736472733333,1671628873.887,514,124476,65200
181828,13644.736472733333,1671628873.887,514,124476,65200
181829,13644.7529622,1671628873.887,512,124412,65197
181829,13644.7529622,1671628873.887,512,124412,65197
181830,13644.7681494,1671628873.978,514,124434,65199
181830,13644.7681494,1671628873.978,514,124434,65199
181831,13644.7833366,1671628873.978,515,124445,65196
181831,13644.7833366,1671628873.978,515,124445,65196
181832,13644.7985238,1671628873.978,515,124380,65214
181832,13644.7985238,1671628873.978,515,124380,65214
181833,13644.813711,1671628873.978,514,124416,65197
181833,13644.813711,1671628873.978,514,124416,65197
181834,13644.8288982,1671628873.978,515,124463,65196
181834,13644.8288982,1671628873.978,515,124463,65196
181835,13644.8440854,1671628873.978,512,124418,65198
181835,13644.8440854,1671628873.978,512,124418,65198
181836,13644.859785749999,1671628874.072,512,124439,65185
181836,13644.859785749999,1671628874.072,512,124439,65185
181837,13644.8754861,1671628874.072,512,124476,65198
181837,13644.8754861,1671628874.072,512,124476,65198
181838,13644.89118645,1671628874.072,512,124447,65174
181838,13644.89118645,1671628874.072,512,124447,65174
181839,13644.9068868,1671628874.072,514,124422,65186
181839,13644.9068868,1671628874.072,514,124422,65186
181840,13644.922587149998,1671628874.072,514,124397,65165
181840,13644.922587149998,1671628874.072,514,124397,65165
181841,13644.9382875,1671628874.072,515,124493,65201
181841,13644.9382875,1671628874.072,515,124493,65201
181842,13644.955808466666,1671628874.177,514,124436,65202
181842,13644.955808466666,1671628874.177,514,124436,65202
181843,13644.973329433333,1671628874.177,512,124476,65210
181843,13644.973329433333,1671628874.177,512,124476,65210
181844,13644.9908504,1671628874.177,514,124455,65213
181844,13644.9908504,1671628874.177,514,124455,65213
181845,13645.008371366666,1671628874.177,514,124489,65218
181845,13645.008371366666,1671628874.177,514,124489,65218
181846,13645.025892333333,1671628874.177,512,124467,65200
181846,13645.025892333333,1671628874.177,512,124467,65200
181847,13645.0434133,1671628874.177,514,124470,65194
181847,13645.0434133,1671628874.177,514,124470,65194
181848,13645.05732015,1671628874.261,515,124493,65231
181848,13645.05732015,1671628874.261,515,124493,65231
181849,13645.071227,1671628874.261,516,124495,65216
181849,13645.071227,1671628874.261,516,124495,65216
181850,13645.08513385,1671628874.261,515,124538,65223
181850,13645.08513385,1671628874.261,515,124538,65223
181851,13645.099040699999,1671628874.261,514,124483,65243
181851,13645.099040699999,1671628874.261,514,124483,65243
181852,13645.11294755,1671628874.261,514,124538,65238
181852,13645.11294755,1671628874.261,514,124538,65238
181853,13645.1268544,1671628874.261,514,124535,65214
181853,13645.1268544,1671628874.261,514,124535,65214
181854,13645.142181783332,1671628874.353,514,124530,65243
181854,13645.142181783332,1671628874.353,514,124530,65243
181855,13645.157509166665,1671628874.353,512,124573,65235
181855,13645.157509166665,1671628874.353,512,124573,65235
181856,13645.172836549998,1671628874.353,515,124551,65240
181856,13645.172836549998,1671628874.353,515,124551,65240
181857,13645.188163933333,1671628874.353,515,124580,65248
181857,13645.188163933333,1671628874.353,515,124580,65248
181858,13645.203491316666,1671628874.353,515,124565,65230
181858,13645.203491316666,1671628874.353,515,124565,65230
181859,13645.2188187,1671628874.353,515,124542,65225
181859,13645.2188187,1671628874.353,515,124542,65225
181860,13645.233904166666,1671628874.443,512,124473,65219
181860,13645.233904166666,1671628874.443,512,124473,65219
181861,13645.248989633334,1671628874.443,514,124464,65184
181861,13645.248989633334,1671628874.443,514,124464,65184
181862,13645.2640751,1671628874.443,515,124413,65158
181862,13645.2640751,1671628874.443,515,124413,65158
181863,13645.279160566666,1671628874.443,515,124451,65171
181863,13645.279160566666,1671628874.443,515,124451,65171
181864,13645.294246033334,1671628874.443,514,124375,65168
181864,13645.294246033334,1671628874.443,514,124375,65168
181865,13645.3093315,1671628874.443,514,124300,65129
181865,13645.3093315,1671628874.443,514,124300,65129
181866,13645.325127566666,1671628874.538,515,124325,65147
181866,13645.325127566666,1671628874.538,515,124325,65147
181867,13645.340923633334,1671628874.538,514,124352,65163
181867,13645.340923633334,1671628874.538,514,124352,65163
181868,13645.356719700001,1671628874.538,514,124341,65163
181868,13645.356719700001,1671628874.538,514,124341,65163
181869,13645.372515766667,1671628874.538,514,124366,65150
181869,13645.372515766667,1671628874.538,514,124366,65150
181870,13645.388311833332,1671628874.538,512,124291,65144
181870,13645.388311833332,1671628874.538,512,124291,65144
181871,13645.4041079,1671628874.538,514,124295,65155
181871,13645.4041079,1671628874.538,514,124295,65155
181872,13645.420413833333,1671628874.636,516,124376,65151
181872,13645.420413833333,1671628874.636,516,124376,65151
181873,13645.436719766667,1671628874.636,514,124351,65167
181873,13645.436719766667,1671628874.636,514,124351,65167
181874,13645.4530257,1671628874.636,514,124343,65148
181874,13645.4530257,1671628874.636,514,124343,65148
181875,13645.469331633332,1671628874.636,514,124309,65162
181875,13645.469331633332,1671628874.636,514,124309,65162
181876,13645.485637566666,1671628874.636,514,124363,65142
181876,13645.485637566666,1671628874.636,514,124363,65142
181877,13645.5019435,1671628874.636,512,124331,65150
181877,13645.5019435,1671628874.636,512,124331,65150
181878,13645.51720565,1671628874.727,512,124349,65145
181878,13645.51720565,1671628874.727,512,124349,65145
181879,13645.5324678,1671628874.727,515,124309,65156
181879,13645.5324678,1671628874.727,515,124309,65156
181880,13645.54772995,1671628874.727,514,124336,65148
181880,13645.54772995,1671628874.727,514,124336,65148
181881,13645.5629921,1671628874.727,516,124300,65143
181881,13645.5629921,1671628874.727,516,124300,65143
181882,13645.57825425,1671628874.727,512,124252,65135
181882,13645.57825425,1671628874.727,512,124252,65135
181883,13645.5935164,1671628874.727,515,124307,65147
181883,13645.5935164,1671628874.727,515,124307,65147
181884,13645.61090845,1671628874.832,514,124280,65135
181884,13645.61090845,1671628874.832,514,124280,65135
181885,13645.6283005,1671628874.832,514,124367,65152
181885,13645.6283005,1671628874.832,514,124367,65152
181886,13645.645692549999,1671628874.832,514,124311,65148
181886,13645.645692549999,1671628874.832,514,124311,65148
181887,13645.663084599999,1671628874.832,515,124317,65191
181887,13645.663084599999,1671628874.832,515,124317,65191
181888,13645.680476649999,1671628874.832,515,124322,65169
181888,13645.680476649999,1671628874.832,515,124322,65169
181889,13645.6978687,1671628874.832,512,124280,65183
181889,13645.6978687,1671628874.832,512,124280,65183
181890,13645.713894299999,1671628874.928,515,124341,65176
181890,13645.713894299999,1671628874.928,515,124341,65176
181891,13645.729919899999,1671628874.928,515,124399,65183
181891,13645.729919899999,1671628874.928,515,124399,65183
181892,13645.745945499999,1671628874.928,514,124391,65187
181892,13645.745945499999,1671628874.928,514,124391,65187
181893,13645.7619711,1671628874.928,515,124367,65179
181893,13645.7619711,1671628874.928,515,124367,65179
181894,13645.7779967,1671628874.928,515,124385,65197
181894,13645.7779967,1671628874.928,515,124385,65197
181895,13645.7940223,1671628874.928,516,124338,65188
181895,13645.7940223,1671628874.928,516,124338,65188
181896,13645.8072195,1671628875.007,515,124384,65204
181896,13645.8072195,1671628875.007,515,124384,65204
181897,13645.8204167,1671628875.007,515,124432,65198
181897,13645.8204167,1671628875.007,515,124432,65198
181898,13645.8336139,1671628875.007,512,124436,65181
181898,13645.8336139,1671628875.007,512,124436,65181
181899,13645.8468111,1671628875.007,514,124407,65214
181899,13645.8468111,1671628875.007,514,124407,65214
181900,13645.8600083,1671628875.007,512,124400,65220
181900,13645.8600083,1671628875.007,512,124400,65220
181901,13645.8732055,1671628875.007,514,124429,65215
181901,13645.8732055,1671628875.007,514,124429,65215
181902,13645.889221083333,1671628875.103,514,124489,65216
181902,13645.889221083333,1671628875.103,514,124489,65216
181903,13645.905236666667,1671628875.103,514,124432,65218
181903,13645.905236666667,1671628875.103,514,124432,65218
181904,13645.92125225,1671628875.103,515,124408,65185
181904,13645.92125225,1671628875.103,515,124408,65185
181905,13645.937267833333,1671628875.103,515,124372,65187
181905,13645.937267833333,1671628875.103,515,124372,65187
181906,13645.953283416668,1671628875.103,512,124361,65166
181906,13645.953283416668,1671628875.103,512,124361,65166
181907,13645.969299,1671628875.103,514,124297,65160
181907,13645.969299,1671628875.103,514,124297,65160
181908,13645.984202616666,1671628875.193,512,124237,65134
181908,13645.984202616666,1671628875.193,512,124237,65134
181909,13645.999106233334,1671628875.193,514,124297,65129
181909,13645.999106233334,1671628875.193,514,124297,65129
181910,13646.014009850001,1671628875.193,515,124275,65148
181910,13646.014009850001,1671628875.193,515,124275,65148
181911,13646.028913466667,1671628875.193,516,124271,65162
181911,13646.028913466667,1671628875.193,516,124271,65162
181912,13646.043817083333,1671628875.193,514,124301,65147
181912,13646.043817083333,1671628875.193,514,124301,65147
181913,13646.0587207,1671628875.193,514,124266,65167
181913,13646.0587207,1671628875.193,514,124266,65167
181914,13646.074485716668,1671628875.287,514,124237,65156
181914,13646.074485716668,1671628875.287,514,124237,65156
181915,13646.090250733334,1671628875.287,512,124267,65131
181915,13646.090250733334,1671628875.287,512,124267,65131
181916,13646.10601575,1671628875.287,514,124212,65153
181916,13646.10601575,1671628875.287,514,124212,65153
181917,13646.121780766667,1671628875.287,514,124227,65161
181917,13646.121780766667,1671628875.287,514,124227,65161
181918,13646.137545783335,1671628875.287,515,124274,65172
181918,13646.137545783335,1671628875.287,515,124274,65172
181919,13646.1533108,1671628875.287,515,124249,65171
181919,13646.1533108,1671628875.287,515,124249,65171
181920,13646.171662666668,1671628875.397,514,124280,65168
181920,13646.171662666668,1671628875.397,514,124280,65168
181921,13646.190014533333,1671628875.397,514,124326,65176
181921,13646.190014533333,1671628875.397,514,124326,65176
181922,13646.2083664,1671628875.397,515,124234,65143
181922,13646.2083664,1671628875.397,515,124234,65143
181923,13646.226718266667,1671628875.397,514,124306,65168
181923,13646.226718266667,1671628875.397,514,124306,65168
181924,13646.245070133333,1671628875.397,514,124259,65145
181924,13646.245070133333,1671628875.397,514,124259,65145
181925,13646.263422,1671628875.397,515,124248,65134
181925,13646.263422,1671628875.397,515,124248,65134
181926,13646.277410816667,1671628875.481,515,124258,65145
181926,13646.277410816667,1671628875.481,515,124258,65145
181927,13646.291399633334,1671628875.481,515,124297,65164
181927,13646.291399633334,1671628875.481,515,124297,65164
181928,13646.30538845,1671628875.481,515,124259,65155
181928,13646.30538845,1671628875.481,515,124259,65155
181929,13646.319377266665,1671628875.481,515,124289,65167
181929,13646.319377266665,1671628875.481,515,124289,65167
181930,13646.333366083332,1671628875.481,512,124248,65136
181930,13646.333366083332,1671628875.481,512,124248,65136
181931,13646.3473549,1671628875.481,514,124289,65179
181931,13646.3473549,1671628875.481,514,124289,65179
181932,13646.361574783332,1671628875.567,515,124256,65167
181932,13646.361574783332,1671628875.567,515,124256,65167
181933,13646.375794666666,1671628875.567,514,124288,65174
181933,13646.375794666666,1671628875.567,514,124288,65174
181934,13646.39001455,1671628875.567,515,124255,65184
181934,13646.39001455,1671628875.567,515,124255,65184
181935,13646.404234433332,1671628875.567,514,124268,65185
181935,13646.404234433332,1671628875.567,514,124268,65185
181936,13646.418454316667,1671628875.567,515,124320,65185
181936,13646.418454316667,1671628875.567,515,124320,65185
181937,13646.4326742,1671628875.567,514,124308,65188
181937,13646.4326742,1671628875.567,514,124308,65188
181938,13646.44684255,1671628875.652,516,124287,65180
181938,13646.44684255,1671628875.652,516,124287,65180
181939,13646.4610109,1671628875.652,514,124389,65206
181939,13646.4610109,1671628875.652,514,124389,65206
181940,13646.47517925,1671628875.652,514,124277,65197
181940,13646.47517925,1671628875.652,514,124277,65197
181941,13646.4893476,1671628875.652,515,124403,65207
181941,13646.4893476,1671628875.652,515,124403,65207
181942,13646.50351595,1671628875.652,517,124394,65224
181942,13646.50351595,1671628875.652,517,124394,65224
181943,13646.5176843,1671628875.652,515,124389,65207
181943,13646.5176843,1671628875.652,515,124389,65207
181944,13646.536290700002,1671628875.763,515,124408,65226
181944,13646.536290700002,1671628875.763,515,124408,65226
181945,13646.5548971,1671628875.763,512,124347,65224
181945,13646.5548971,1671628875.763,512,124347,65224
181946,13646.5735035,1671628875.763,514,124442,65215
181946,13646.5735035,1671628875.763,514,124442,65215
181947,13646.5921099,1671628875.763,514,124381,65191
181947,13646.5921099,1671628875.763,514,124381,65191
181948,13646.610716300002,1671628875.763,514,124329,65182
181948,13646.610716300002,1671628875.763,514,124329,65182
181949,13646.6293227,1671628875.763,516,124279,65178
181949,13646.6293227,1671628875.763,516,124279,65178
181950,13646.644340366667,1671628875.853,515,124266,65141
181950,13646.644340366667,1671628875.853,515,124266,65141
181951,13646.659358033334,1671628875.853,514,124233,65153
181951,13646.659358033334,1671628875.853,514,124233,65153
181952,13646.6743757,1671628875.853,515,124277,65153
181952,13646.6743757,1671628875.853,515,124277,65153
181953,13646.689393366667,1671628875.853,514,124219,65156
181953,13646.689393366667,1671628875.853,514,124219,65156
181954,13646.704411033334,1671628875.853,515,124209,65153
181954,13646.704411033334,1671628875.853,515,124209,65153
181955,13646.7194287,1671628875.853,512,124141,65172
181955,13646.7194287,1671628875.853,512,124141,65172
181956,13646.733988583333,1671628875.941,514,124178,65152
181956,13646.733988583333,1671628875.941,514,124178,65152
181957,13646.748548466667,1671628875.941,515,124187,65171
181957,13646.748548466667,1671628875.941,515,124187,65171
181958,13646.76310835,1671628875.941,515,124139,65166
181958,13646.76310835,1671628875.941,515,124139,65166
181959,13646.777668233333,1671628875.941,515,124171,65162
181959,13646.777668233333,1671628875.941,515,124171,65162
181960,13646.792228116667,1671628875.941,515,124236,65169
181960,13646.792228116667,1671628875.941,515,124236,65169
181961,13646.806788,1671628875.941,515,124224,65191
181961,13646.806788,1671628875.941,515,124224,65191
181962,13646.8228593,1671628876.037,512,124221,65151
181962,13646.8228593,1671628876.037,512,124221,65151
181963,13646.8389306,1671628876.037,512,124171,65182
181963,13646.8389306,1671628876.037,512,124171,65182
181964,13646.8550019,1671628876.037,514,124252,65167
181964,13646.8550019,1671628876.037,514,124252,65167
181965,13646.8710732,1671628876.037,514,124274,65166
181965,13646.8710732,1671628876.037,514,124274,65166
181966,13646.8871445,1671628876.037,514,124245,65138
181966,13646.8871445,1671628876.037,514,124245,65138
181967,13646.9032158,1671628876.037,515,124148,65167
181967,13646.9032158,1671628876.037,515,124148,65167
181968,13646.919673983335,1671628876.136,514,124182,65147
181968,13646.919673983335,1671628876.136,514,124182,65147
181969,13646.936132166667,1671628876.136,514,124300,65164
181969,13646.936132166667,1671628876.136,514,124300,65164
181970,13646.95259035,1671628876.136,514,124180,65151
181970,13646.95259035,1671628876.136,514,124180,65151
181971,13646.969048533334,1671628876.136,514,124232,65178
181971,13646.969048533334,1671628876.136,514,124232,65178
181972,13646.985506716668,1671628876.136,514,124198,65161
181972,13646.985506716668,1671628876.136,514,124198,65161
181973,13647.0019649,1671628876.136,514,124198,65177
181973,13647.0019649,1671628876.136,514,124198,65177
181974,13647.017190766666,1671628876.227,512,124228,65173
181974,13647.017190766666,1671628876.227,512,124228,65173
181975,13647.032416633334,1671628876.227,514,124153,65176
181975,13647.032416633334,1671628876.227,514,124153,65176
181976,13647.047642500002,1671628876.227,512,124224,65159
181976,13647.047642500002,1671628876.227,512,124224,65159
181977,13647.062868366667,1671628876.227,512,124284,65192
181977,13647.062868366667,1671628876.227,512,124284,65192
181978,13647.078094233333,1671628876.227,512,124265,65176
181978,13647.078094233333,1671628876.227,512,124265,65176
181979,13647.0933201,1671628876.227,512,124271,65187
181979,13647.0933201,1671628876.227,512,124271,65187
181980,13647.108433050002,1671628876.318,514,124270,65177
181980,13647.108433050002,1671628876.318,514,124270,65177
181981,13647.123546,1671628876.318,514,124241,65187
181981,13647.123546,1671628876.318,514,124241,65187
181982,13647.13865895,1671628876.318,515,124315,65203
181982,13647.13865895,1671628876.318,515,124315,65203
181983,13647.1537719,1671628876.318,515,124212,65202
181983,13647.1537719,1671628876.318,515,124212,65202
181984,13647.168884850002,1671628876.318,514,124271,65192
181984,13647.168884850002,1671628876.318,514,124271,65192
181985,13647.1839978,1671628876.318,511,124325,65199
181985,13647.1839978,1671628876.318,511,124325,65199
181986,13647.200294266668,1671628876.416,512,124275,65189
181986,13647.200294266668,1671628876.416,512,124275,65189
181987,13647.216590733335,1671628876.416,514,124286,65194
181987,13647.216590733335,1671628876.416,514,124286,65194
181988,13647.2328872,1671628876.416,515,124277,65198
181988,13647.2328872,1671628876.416,515,124277,65198
181989,13647.249183666667,1671628876.416,514,124290,65158
181989,13647.249183666667,1671628876.416,514,124290,65158
181990,13647.265480133334,1671628876.416,512,124173,65139
181990,13647.265480133334,1671628876.416,512,124173,65139
181991,13647.2817766,1671628876.416,512,124115,65124
181991,13647.2817766,1671628876.416,512,124115,65124
181992,13647.298227500001,1671628876.514,510,124111,65131
181992,13647.298227500001,1671628876.514,510,124111,65131
181993,13647.3146784,1671628876.514,511,124080,65104
181993,13647.3146784,1671628876.514,511,124080,65104
181994,13647.3311293,1671628876.514,512,124114,65112
181994,13647.3311293,1671628876.514,512,124114,65112
181995,13647.347580200001,1671628876.514,511,124100,65098
181995,13647.347580200001,1671628876.514,511,124100,65098
181996,13647.3640311,1671628876.514,514,124018,65108
181996,13647.3640311,1671628876.514,514,124018,65108
181997,13647.380482,1671628876.514,511,124123,65105
181997,13647.380482,1671628876.514,511,124123,65105
181998,13647.395080066668,1671628876.602,512,124072,65100
181998,13647.395080066668,1671628876.602,512,124072,65100
181999,13647.409678133334,1671628876.602,512,124029,65092
181999,13647.409678133334,1671628876.602,512,124029,65092
182000,13647.4242762,1671628876.602,511,124089,65095
182000,13647.4242762,1671628876.602,511,124089,65095
182001,13647.438874266667,1671628876.602,511,124067,65123
182001,13647.438874266667,1671628876.602,511,124067,65123
182002,13647.453472333335,1671628876.602,511,124084,65105
182002,13647.453472333335,1671628876.602,511,124084,65105
182003,13647.4680704,1671628876.602,512,124067,65098
182003,13647.4680704,1671628876.602,512,124067,65098
182004,13647.483096116666,1671628876.692,512,124129,65106
182004,13647.483096116666,1671628876.692,512,124129,65106
182005,13647.498121833334,1671628876.692,514,124085,65095
182005,13647.498121833334,1671628876.692,514,124085,65095
182006,13647.51314755,1671628876.692,515,124002,65098
182006,13647.51314755,1671628876.692,515,124002,65098
182007,13647.528173266666,1671628876.692,512,123955,65091
182007,13647.528173266666,1671628876.692,512,123955,65091
182008,13647.543198983334,1671628876.692,514,124021,65077
182008,13647.543198983334,1671628876.692,514,124021,65077
182009,13647.5582247,1671628876.692,512,124045,65095
182009,13647.5582247,1671628876.692,512,124045,65095
182010,13647.57425265,1671628876.788,511,123989,65061
182010,13647.57425265,1671628876.788,511,123989,65061
182011,13647.5902806,1671628876.788,514,124007,65071
182011,13647.5902806,1671628876.788,514,124007,65071
182012,13647.606308549999,1671628876.788,515,124063,65092
182012,13647.606308549999,1671628876.788,515,124063,65092
182013,13647.6223365,1671628876.788,514,124002,65088
182013,13647.6223365,1671628876.788,514,124002,65088
182014,13647.63836445,1671628876.788,514,123983,65080
182014,13647.63836445,1671628876.788,514,123983,65080
182015,13647.6543924,1671628876.788,511,124012,65093
182015,13647.6543924,1671628876.788,511,124012,65093
182016,13647.670556916666,1671628876.885,511,124042,65103
182016,13647.670556916666,1671628876.885,511,124042,65103
182017,13647.686721433332,1671628876.885,512,124048,65105
182017,13647.686721433332,1671628876.885,512,124048,65105
182018,13647.702885949999,1671628876.885,511,123979,65098
182018,13647.702885949999,1671628876.885,511,123979,65098
182019,13647.719050466667,1671628876.885,512,124050,65065
182019,13647.719050466667,1671628876.885,512,124050,65065
182020,13647.735214983333,1671628876.885,514,124010,65093
182020,13647.735214983333,1671628876.885,514,124010,65093
182021,13647.7513795,1671628876.885,514,124032,65092
182021,13647.7513795,1671628876.885,514,124032,65092
182022,13647.766779666666,1671628876.978,515,124065,65091
182022,13647.766779666666,1671628876.978,515,124065,65091
182023,13647.782179833333,1671628876.978,512,124087,65112
182023,13647.782179833333,1671628876.978,512,124087,65112
182024,13647.797579999999,1671628876.978,512,124045,65110
182024,13647.797579999999,1671628876.978,512,124045,65110
182025,13647.812980166666,1671628876.978,511,124063,65090
182025,13647.812980166666,1671628876.978,511,124063,65090
182026,13647.828380333332,1671628876.978,514,124094,65093
182026,13647.828380333332,1671628876.978,514,124094,65093
182027,13647.8437805,1671628876.978,514,124057,65092
182027,13647.8437805,1671628876.978,514,124057,65092
182028,13647.858865049999,1671628877.068,515,124108,65085
182028,13647.858865049999,1671628877.068,515,124108,65085
182029,13647.8739496,1671628877.068,514,124042,65066
182029,13647.8739496,1671628877.068,514,124042,65066
182030,13647.889034150001,1671628877.068,514,124008,65050
182030,13647.889034150001,1671628877.068,514,124008,65050
182031,13647.9041187,1671628877.068,512,124020,65030
182031,13647.9041187,1671628877.068,512,124020,65030
182032,13647.91920325,1671628877.068,512,123920,65037
182032,13647.91920325,1671628877.068,512,123920,65037
182033,13647.9342878,1671628877.068,512,123865,65010
182033,13647.9342878,1671628877.068,512,123865,65010
182034,13647.950381666667,1671628877.165,515,123854,65002
182034,13647.950381666667,1671628877.165,515,123854,65002
182035,13647.966475533334,1671628877.165,514,123799,65009
182035,13647.966475533334,1671628877.165,514,123799,65009
182036,13647.9825694,1671628877.165,515,123844,65003
182036,13647.9825694,1671628877.165,515,123844,65003
182037,13647.998663266666,1671628877.165,514,123858,64964
182037,13647.998663266666,1671628877.165,514,123858,64964
182038,13648.008409372562,1671628877.165,515,123792,64976
182038,13648.015925123185,1671628877.165,515,123792,64976
182039,13648.023440873809,1671628877.165,512,123853,64986
182039,13648.030956624432,1671628877.165,512,123853,64986
182040,13648.038472375056,1671628877.256,514,123820,64977
182040,13648.04598812568,1671628877.256,514,123820,64977
182041,13648.053503876303,1671628877.256,515,123849,64979
182041,13648.061019626926,1671628877.256,515,123849,64979
182042,13648.06853537755,1671628877.256,514,123762,64951
182042,13648.076051128173,1671628877.256,514,123762,64951
182043,13648.083566878797,1671628877.256,512,123745,64953
182043,13648.09108262942,1671628877.256,512,123745,64953
182044,13648.098598380044,1671628877.256,515,123791,64954
182044,13648.106114130667,1671628877.256,515,123791,64954
182045,13648.11362988129,1671628877.256,511,123790,64965
182045,13648.121145631914,1671628877.256,511,123790,64965
182046,13648.128661382538,1671628877.358,512,123840,64956
182046,13648.136177133161,1671628877.358,512,123840,64956
182047,13648.143692883785,1671628877.358,511,123750,64954
182047,13648.151208634408,1671628877.358,511,123750,64954
182048,13648.165728304431,1671628877.358,512,123738,64951
182048,13648.173438637328,1671628877.358,512,123738,64951
182049,13648.181148970225,1671628877.358,515,123736,64905
182049,13648.188859303122,1671628877.358,515,123736,64905
182050,13648.196569636018,1671628877.358,514,123761,64929
182050,13648.204279968915,1671628877.358,514,123761,64929
182051,13648.211990301812,1671628877.358,514,123764,64929
182051,13648.219700634709,1671628877.358,514,123764,64929
182052,13648.227410967605,1671628877.441,514,123663,64948
182052,13648.235121300502,1671628877.441,514,123663,64948
182053,13648.242831633399,1671628877.441,515,123687,64942
182053,13648.250541966296,1671628877.441,515,123687,64942
182054,13648.258252299192,1671628877.441,512,123725,64941
182054,13648.26596263209,1671628877.441,512,123725,64941
182055,13648.273672964986,1671628877.441,512,123692,64930
182055,13648.281383297883,1671628877.441,512,123692,64930
182056,13648.28909363078,1671628877.441,511,123697,64925
182056,13648.296803963676,1671628877.441,511,123697,64925
182057,13648.304514296573,1671628877.441,512,123698,64935
182057,13648.31222462947,1671628877.441,512,123698,64935
182058,13648.315914677196,1671628877.54,514,123717,64937
182058,13648.322460822154,1671628877.54,514,123717,64937
182059,13648.329006967111,1671628877.54,512,123728,64924
182059,13648.335553112069,1671628877.54,512,123728,64924
182060,13648.342099257026,1671628877.54,512,123812,64935
182060,13648.348645401984,1671628877.54,512,123812,64935
182061,13648.355191546942,1671628877.54,512,123700,64941
182061,13648.3617376919,1671628877.54,512,123700,64941
182062,13648.368283836857,1671628877.54,512,123703,64934
182062,13648.374829981814,1671628877.54,512,123703,64934
182063,13648.381376126772,1671628877.54,511,123753,64939
182063,13648.38792227173,1671628877.54,511,123753,64939
182064,13648.394468416687,1671628877.636,511,123755,64924
182064,13648.401014561645,1671628877.636,511,123755,64924
182065,13648.407560706602,1671628877.636,512,123751,64937
182065,13648.41410685156,1671628877.636,512,123751,64937
182066,13648.420652996518,1671628877.636,512,123760,64936
182066,13648.427199141475,1671628877.636,512,123760,64936
182067,13648.433745286433,1671628877.636,512,123775,64954
182067,13648.44029143139,1671628877.636,512,123775,64954
182068,13648.479665033037,1671628877.636,514,123764,64908
182068,13648.487155892206,1671628877.636,514,123764,64908
182069,13648.494646751375,1671628877.636,514,123833,64931
182069,13648.502137610543,1671628877.636,514,123833,64931
182070,13648.509628469712,1671628877.728,512,123752,64945
182070,13648.51711932888,1671628877.728,512,123752,64945
182071,13648.52461018805,1671628877.728,511,123821,64923
182071,13648.532101047218,1671628877.728,511,123821,64923
182072,13648.539591906387,1671628877.728,514,123796,64897
182072,13648.547082765555,1671628877.728,514,123796,64897
182073,13648.554573624724,1671628877.728,514,123676,64887
182073,13648.562064483893,1671628877.728,514,123676,64887
182074,13648.569555343061,1671628877.728,512,123679,64863
182074,13648.57704620223,1671628877.728,512,123679,64863
182075,13648.584537061399,1671628877.728,514,123639,64848
182075,13648.592027920567,1671628877.728,514,123639,64848
182076,13648.599518779736,1671628877.816,514,123513,64823
182076,13648.607009638905,1671628877.816,514,123513,64823
182077,13648.614500498074,1671628877.816,514,123540,64823
182077,13648.621991357242,1671628877.816,514,123540,64823
182078,13648.632768970052,1671628877.816,512,123495,64845
182078,13648.63975762921,1671628877.816,512,123495,64845
182079,13648.646746288367,1671628877.816,512,123428,64817
182079,13648.653734947524,1671628877.816,512,123428,64817
182080,13648.660723606681,1671628877.816,511,123429,64820
182080,13648.667712265838,1671628877.816,511,123429,64820
182081,13648.674700924996,1671628877.816,514,123459,64792
182081,13648.681689584153,1671628877.816,514,123459,64792
182082,13648.68867824331,1671628877.93,512,123495,64796
182082,13648.695666902468,1671628877.93,512,123495,64796
182083,13648.702655561625,1671628877.93,515,123444,64792
182083,13648.709644220782,1671628877.93,515,123444,64792
182084,13648.71663287994,1671628877.93,514,123441,64789
182084,13648.723621539097,1671628877.93,514,123441,64789
182085,13648.730610198254,1671628877.93,512,123388,64761
182085,13648.737598857411,1671628877.93,512,123388,64761
182086,13648.744587516569,1671628877.93,515,123439,64772
182086,13648.751576175726,1671628877.93,515,123439,64772
182087,13648.758564834883,1671628877.93,510,123381,64767
182087,13648.76555349404,1671628877.93,510,123381,64767
182088,13648.807431275389,1671628878.012,511,123399,64755
182088,13648.81627934784,1671628878.012,511,123399,64755
182089,13648.825127420292,1671628878.012,514,123395,64766
182089,13648.833975492744,1671628878.012,514,123395,64766
182090,13648.842823565195,1671628878.012,512,123373,64753
182090,13648.851671637647,1671628878.012,512,123373,64753
182091,13648.860519710099,1671628878.012,514,123357,64744
182091,13648.86936778255,1671628878.012,514,123357,64744
182092,13648.878215855002,1671628878.012,514,123436,64746
182092,13648.887063927454,1671628878.012,514,123436,64746
182093,13648.895911999905,1671628878.012,515,123429,64725
182093,13648.904760072357,1671628878.012,515,123429,64725
182094,13648.913608144809,1671628878.1,512,123356,64719
182094,13648.92245621726,1671628878.1,512,123356,64719
182095,13648.931304289712,1671628878.1,512,123276,64715
182095,13648.940152362164,1671628878.1,512,123276,64715
182096,13648.949000434615,1671628878.1,512,123338,64711
182096,13648.957848507067,1671628878.1,512,123338,64711
182097,13648.966696579519,1671628878.1,511,123383,64711
182097,13648.97554465197,1671628878.1,511,123383,64711
182098,13648.945190963514,1671628878.1,517,123326,64716
182098,13648.952022765256,1671628878.1,517,123326,64716
182099,13648.958854566998,1671628878.1,514,123356,64730
182099,13648.96568636874,1671628878.1,514,123356,64730
182100,13648.972518170482,1671628878.193,515,123352,64695
182100,13648.979349972224,1671628878.193,515,123352,64695
182101,13648.986181773966,1671628878.193,515,123292,64714
182101,13648.993013575708,1671628878.193,515,123292,64714
182102,13648.99984537745,1671628878.193,512,123382,64730
182102,13649.006677179192,1671628878.193,512,123382,64730
182103,13649.013508980934,1671628878.193,512,123411,64717
182103,13649.020340782676,1671628878.193,512,123411,64717
182104,13649.027172584418,1671628878.193,512,123375,64704
182104,13649.03400438616,1671628878.193,512,123375,64704
182105,13649.040836187902,1671628878.193,512,123394,64705
182105,13649.047667989644,1671628878.193,512,123394,64705
182106,13649.054499791386,1671628878.306,514,123400,64717
182106,13649.061331593128,1671628878.306,514,123400,64717
182107,13649.06816339487,1671628878.306,514,123409,64725
182107,13649.074995196612,1671628878.306,514,123409,64725
182108,13649.10729516106,1671628878.306,512,123346,64708
182108,13649.115706700402,1671628878.306,512,123346,64708
182109,13649.124118239744,1671628878.306,512,123407,64701
182109,13649.132529779086,1671628878.306,512,123407,64701
182110,13649.140941318428,1671628878.306,514,123419,64702
182110,13649.14935285777,1671628878.306,514,123419,64702
182111,13649.157764397112,1671628878.306,511,123418,64683
182111,13649.166175936454,1671628878.306,511,123418,64683
182112,13649.174587475796,1671628878.385,510,123418,64683
182112,13649.182999015138,1671628878.385,510,123418,64683
182113,13649.19141055448,1671628878.385,514,123468,64705
182113,13649.199822093822,1671628878.385,514,123468,64705
182114,13649.208233633164,1671628878.385,514,123375,64705
182114,13649.216645172506,1671628878.385,514,123375,64705
182115,13649.225056711848,1671628878.385,514,123452,64708
182115,13649.23346825119,1671628878.385,514,123452,64708
182116,13649.241879790532,1671628878.385,514,123376,64707
182116,13649.250291329874,1671628878.385,514,123376,64707
182117,13649.258702869216,1671628878.385,512,123489,64696
182117,13649.267114408558,1671628878.385,512,123489,64696
182118,13649.25866042536,1671628878.479,514,123452,64695
182118,13649.264793944069,1671628878.479,514,123452,64695
182119,13649.270927462778,1671628878.479,512,123491,64740
182119,13649.277060981487,1671628878.479,512,123491,64740
182120,13649.283194500196,1671628878.479,512,123396,64685
182120,13649.289328018906,1671628878.479,512,123396,64685
182121,13649.295461537615,1671628878.479,512,123437,64685
182121,13649.301595056324,1671628878.479,512,123437,64685
182122,13649.307728575033,1671628878.479,515,123314,64642
182122,13649.313862093743,1671628878.479,515,123314,64642
182123,13649.319995612452,1671628878.479,514,123378,64623
182123,13649.326129131161,1671628878.479,514,123378,64623
182124,13649.33226264987,1671628878.564,512,123280,64636
182124,13649.33839616858,1671628878.564,512,123280,64636
182125,13649.344529687289,1671628878.564,510,123242,64616
182125,13649.350663205998,1671628878.564,510,123242,64616
182126,13649.356796724707,1671628878.564,511,123177,64579
182126,13649.362930243416,1671628878.564,511,123177,64579
182127,13649.369063762126,1671628878.564,511,123164,64602
182127,13649.375197280835,1671628878.564,511,123164,64602
182128,13649.410754347799,1671628878.564,512,123174,64590
182128,13649.417447341015,1671628878.564,512,123174,64590
182129,13649.424140334231,1671628878.564,511,123139,64585
182129,13649.430833327448,1671628878.564,511,123139,64585
182130,13649.437526320664,1671628878.666,512,123165,64576
182130,13649.44421931388,1671628878.666,512,123165,64576
182131,13649.450912307097,1671628878.666,514,123150,64555
182131,13649.457605300313,1671628878.666,514,123150,64555
182132,13649.46429829353,1671628878.666,512,123077,64568
182132,13649.470991286746,1671628878.666,512,123077,64568
182133,13649.477684279962,1671628878.666,511,123065,64546
182133,13649.484377273178,1671628878.666,511,123065,64546
182134,13649.491070266395,1671628878.666,512,123056,64543
182134,13649.497763259611,1671628878.666,512,123056,64543
182135,13649.504456252827,1671628878.666,511,123012,64523
182135,13649.511149246044,1671628878.666,511,123012,64523
182136,13649.51784223926,1671628878.777,511,123110,64528
182136,13649.524535232476,1671628878.777,511,123110,64528
182137,13649.531228225693,1671628878.777,512,123074,64521
182137,13649.53792121891,1671628878.777,512,123074,64521
182138,13649.579875618612,1671628878.777,514,123059,64523
182138,13649.58834106948,1671628878.777,514,123059,64523
182139,13649.596806520349,1671628878.777,512,123055,64508
182139,13649.605271971217,1671628878.777,512,123055,64508
182140,13649.613737422085,1671628878.777,514,123036,64519
182140,13649.622202872953,1671628878.777,514,123036,64519
182141,13649.630668323822,1671628878.777,511,123010,64498
182141,13649.63913377469,1671628878.777,511,123010,64498
182142,13649.647599225558,1671628878.854,512,123060,64514
182142,13649.656064676426,1671628878.854,512,123060,64514
182143,13649.664530127295,1671628878.854,510,123019,64501
182143,13649.672995578163,1671628878.854,510,123019,64501
182144,13649.681461029031,1671628878.854,511,122999,64495
182144,13649.6899264799,1671628878.854,511,122999,64495
182145,13649.698391930768,1671628878.854,512,122983,64491
182145,13649.706857381636,1671628878.854,512,122983,64491
182146,13649.715322832504,1671628878.854,512,122985,64465
182146,13649.723788283372,1671628878.854,512,122985,64465
182147,13649.73225373424,1671628878.854,512,122966,64467
182147,13649.740719185109,1671628878.854,512,122966,64467
182148,13649.727845678857,1671628878.943,512,122985,64461
182148,13649.733873377787,1671628878.943,512,122985,64461
182149,13649.739901076717,1671628878.943,511,122990,64459
182149,13649.745928775646,1671628878.943,511,122990,64459
182150,13649.751956474576,1671628878.943,510,123005,64463
182150,13649.757984173506,1671628878.943,510,123005,64463
182151,13649.764011872436,1671628878.943,511,122993,64472
182151,13649.770039571365,1671628878.943,511,122993,64472
182152,13649.776067270295,1671628878.943,511,122987,64474
182152,13649.782094969225,1671628878.943,511,122987,64474
182153,13649.788122668155,1671628878.943,512,123020,64468
182153,13649.794150367085,1671628878.943,512,123020,64468
182154,13649.800178066014,1671628879.037,511,123034,64490
182154,13649.806205764944,1671628879.037,511,123034,64490
182155,13649.812233463874,1671628879.037,512,123006,64473
182155,13649.818261162804,1671628879.037,512,123006,64473
182156,13649.824288861733,1671628879.037,511,123015,64474
182156,13649.830316560663,1671628879.037,511,123015,64474
182157,13649.836344259593,1671628879.037,512,123079,64489
182157,13649.842371958523,1671628879.037,512,123079,64489
182158,13649.881327148069,1671628879.037,510,123047,64482
182158,13649.888655581379,1671628879.037,510,123047,64482
182159,13649.895984014689,1671628879.037,511,123046,64488
182159,13649.903312448,1671628879.037,511,123046,64488
182160,13649.91064088131,1671628879.135,512,123085,64479
182160,13649.91796931462,1671628879.135,512,123085,64479
182161,13649.92529774793,1671628879.135,514,123104,64477
182161,13649.93262618124,1671628879.135,514,123104,64477
182162,13649.93995461455,1671628879.135,512,123077,64488
182162,13649.94728304786,1671628879.135,512,123077,64488
182163,13649.954611481171,1671628879.135,512,123135,64460
182163,13649.961939914481,1671628879.135,512,123135,64460
182164,13649.969268347792,1671628879.135,512,123097,64486
182164,13649.976596781102,1671628879.135,512,123097,64486
182165,13649.983925214412,1671628879.135,512,123090,64475
182165,13649.991253647722,1671628879.135,512,123090,64475
182166,13649.998582081033,1671628879.228,512,123140,64495
182166,13650.005910514343,1671628879.228,512,123140,64495
182167,13650.013238947653,1671628879.228,514,123128,64507
182167,13650.020567380963,1671628879.228,514,123128,64507
182168,13650.041637052753,1671628879.228,512,123075,64486
182168,13650.049033500565,1671628879.228,512,123075,64486
182169,13650.056429948378,1671628879.228,511,123065,64479
182169,13650.06382639619,1671628879.228,511,123065,64479
182170,13650.071222844002,1671628879.228,512,123095,64480
182170,13650.078619291815,1671628879.228,512,123095,64480
182171,13650.086015739627,1671628879.228,512,123176,64495
182171,13650.09341218744,1671628879.228,512,123176,64495
182172,13650.100808635252,1671628879.322,511,123120,64515
182172,13650.108205083065,1671628879.322,511,123120,64515
182173,13650.115601530877,1671628879.322,512,123153,64495
182173,13650.12299797869,1671628879.322,512,123153,64495
182174,13650.130394426502,1671628879.322,514,123155,64493
182174,13650.137790874314,1671628879.322,514,123155,64493
182175,13650.145187322127,1671628879.322,512,123198,64514
182175,13650.15258376994,1671628879.322,512,123198,64514
182176,13650.159980217752,1671628879.322,514,123195,64511
182176,13650.167376665564,1671628879.322,514,123195,64511
182177,13650.174773113376,1671628879.322,514,123165,64484
182177,13650.182169561189,1671628879.322,514,123165,64484
182178,13650.197897748958,1671628879.415,514,123054,64476
182178,13650.205247775919,1671628879.415,514,123054,64476
182179,13650.21259780288,1671628879.415,512,122996,64458
182179,13650.21994782984,1671628879.415,512,122996,64458
182180,13650.227297856802,1671628879.415,511,122998,64444
182180,13650.234647883763,1671628879.415,511,122998,64444
182181,13650.241997910724,1671628879.415,510,122975,64429
182181,13650.249347937684,1671628879.415,510,122975,64429
182182,13650.256697964645,1671628879.415,514,123008,64414
182182,13650.264047991606,1671628879.415,514,123008,64414
182183,13650.271398018567,1671628879.415,512,122966,64399
182183,13650.278748045528,1671628879.415,512,122966,64399
182184,13650.286098072489,1671628879.513,515,122910,64408
182184,13650.29344809945,1671628879.513,515,122910,64408
182185,13650.30079812641,1671628879.513,514,122952,64403
182185,13650.308148153372,1671628879.513,514,122952,64403
182186,13650.315498180333,1671628879.513,514,122828,64410
182186,13650.322848207294,1671628879.513,514,122828,64410
182187,13650.330198234255,1671628879.513,512,122826,64393
182187,13650.337548261215,1671628879.513,512,122826,64393
182188,13650.356531428499,1671628879.513,512,122924,64381
182188,13650.364216939552,1671628879.513,512,122924,64381
182189,13650.371902450604,1671628879.513,512,122844,64381
182189,13650.379587961657,1671628879.513,512,122844,64381
182190,13650.38727347271,1671628879.6,512,122811,64382
182190,13650.394958983763,1671628879.6,512,122811,64382
182191,13650.402644494816,1671628879.6,511,122779,64360
182191,13650.410330005869,1671628879.6,511,122779,64360
182192,13650.418015516922,1671628879.6,514,122756,64365
182192,13650.425701027974,1671628879.6,514,122756,64365
182193,13650.433386539027,1671628879.6,514,122759,64351
182193,13650.44107205008,1671628879.6,514,122759,64351
182194,13650.448757561133,1671628879.6,512,122811,64352
182194,13650.456443072186,1671628879.6,512,122811,64352
182195,13650.464128583239,1671628879.6,512,122756,64357
182195,13650.471814094291,1671628879.6,512,122756,64357
182196,13650.479499605344,1671628879.691,512,122787,64352
182196,13650.487185116397,1671628879.691,512,122787,64352
182197,13650.49487062745,1671628879.691,512,122730,64350
182197,13650.502556138503,1671628879.691,512,122730,64350
182198,13650.505524021617,1671628879.691,511,122752,64316
182198,13650.512493741837,1671628879.691,511,122752,64316
182199,13650.519463462057,1671628879.691,511,122731,64329
182199,13650.526433182276,1671628879.691,511,122731,64329
182200,13650.533402902496,1671628879.691,514,122724,64305
182200,13650.540372622716,1671628879.691,514,122724,64305
182201,13650.547342342936,1671628879.691,514,122764,64334
182201,13650.554312063156,1671628879.691,514,122764,64334
182202,13650.561281783375,1671628879.787,512,122779,64348
182202,13650.568251503595,1671628879.787,512,122779,64348
182203,13650.575221223815,1671628879.787,512,122722,64322
182203,13650.582190944035,1671628879.787,512,122722,64322
182204,13650.589160664254,1671628879.787,512,122740,64353
182204,13650.596130384474,1671628879.787,512,122740,64353
182205,13650.603100104694,1671628879.787,512,122725,64319
182205,13650.610069824914,1671628879.787,512,122725,64319
182206,13650.617039545134,1671628879.787,514,122697,64336
182206,13650.624009265353,1671628879.787,514,122697,64336
182207,13650.630978985573,1671628879.787,512,122740,64332
182207,13650.637948705793,1671628879.787,512,122740,64332
182208,13650.662999283353,1671628879.887,516,122771,64351
182208,13650.670541654792,1671628879.887,516,122771,64351
182209,13650.67808402623,1671628879.887,512,122790,64333
182209,13650.68562639767,1671628879.887,512,122790,64333
182210,13650.693168769109,1671628879.887,512,122742,64307
182210,13650.700711140547,1671628879.887,512,122742,64307
182211,13650.708253511986,1671628879.887,512,122674,64348
182211,13650.715795883425,1671628879.887,512,122674,64348
182212,13650.723338254864,1671628879.887,512,122762,64329
182212,13650.730880626303,1671628879.887,512,122762,64329
182213,13650.738422997742,1671628879.887,512,122720,64336
182213,13650.74596536918,1671628879.887,512,122720,64336
182214,13650.75350774062,1671628879.978,511,122739,64327
182214,13650.761050112058,1671628879.978,511,122739,64327
182215,13650.768592483497,1671628879.978,512,122734,64331
182215,13650.776134854936,1671628879.978,512,122734,64331
182216,13650.783677226374,1671628879.978,514,122757,64332
182216,13650.791219597813,1671628879.978,514,122757,64332
182217,13650.798761969252,1671628879.978,512,122820,64336
182217,13650.806304340691,1671628879.978,512,122820,64336
182218,13650.823139220583,1671628879.978,514,122838,64332
182218,13650.830334893031,1671628879.978,514,122838,64332
182219,13650.837530565479,1671628879.978,512,122819,64353
182219,13650.844726237927,1671628879.978,512,122819,64353
182220,13650.851921910375,1671628880.072,512,122789,64353
182220,13650.859117582822,1671628880.072,512,122789,64353
182221,13650.86631325527,1671628880.072,512,122807,64339
182221,13650.873508927718,1671628880.072,512,122807,64339
182222,13650.880704600166,1671628880.072,512,122788,64349
182222,13650.887900272613,1671628880.072,512,122788,64349
182223,13650.895095945061,1671628880.072,512,122816,64338
182223,13650.902291617509,1671628880.072,512,122816,64338
182224,13650.909487289957,1671628880.072,514,122794,64348
182224,13650.916682962405,1671628880.072,514,122794,64348
182225,13650.923878634852,1671628880.072,514,122839,64348
182225,13650.9310743073,1671628880.072,514,122839,64348
182226,13650.938269979748,1671628880.165,514,122797,64351
182226,13650.945465652196,1671628880.165,514,122797,64351
182227,13650.952661324643,1671628880.165,512,122811,64369
182227,13650.959856997091,1671628880.165,512,122811,64369
182228,13650.978461669158,1671628880.165,511,122819,64356
182228,13650.985773874734,1671628880.165,511,122819,64356
182229,13650.99308608031,1671628880.165,512,122799,64369
182229,13651.000398285887,1671628880.165,512,122799,64369
182230,13651.007710491464,1671628880.165,511,122829,64371
182230,13651.01502269704,1671628880.165,511,122829,64371
182231,13651.022334902616,1671628880.165,511,122863,64356
182231,13651.029647108193,1671628880.165,511,122863,64356
182232,13651.03695931377,1671628880.256,514,122913,64363
182232,13651.044271519346,1671628880.256,514,122913,64363
182233,13651.051583724922,1671628880.256,515,122854,64377
182233,13651.058895930499,1671628880.256,515,122854,64377
182234,13651.066208136075,1671628880.256,512,122810,64365
182234,13651.073520341652,1671628880.256,512,122810,64365
182235,13651.080832547228,1671628880.256,510,122888,64381
182235,13651.088144752805,1671628880.256,510,122888,64381
182236,13651.095456958381,1671628880.256,512,122911,64365
182236,13651.102769163957,1671628880.256,512,122911,64365
182237,13651.110081369534,1671628880.256,511,122835,64366
182237,13651.11739357511,1671628880.256,511,122835,64366
182238,13651.131270390122,1671628880.354,511,122922,64368
182238,13651.138355182104,1671628880.354,511,122922,64368
182239,13651.145439974085,1671628880.354,514,122901,64366
182239,13651.152524766067,1671628880.354,514,122901,64366
182240,13651.159609558048,1671628880.354,514,122935,64383
182240,13651.16669435003,1671628880.354,514,122935,64383
182241,13651.173779142011,1671628880.354,512,122979,64367
182241,13651.180863933992,1671628880.354,512,122979,64367
182242,13651.187948725974,1671628880.354,512,122958,64351
182242,13651.195033517955,1671628880.354,512,122958,64351
182243,13651.202118309937,1671628880.354,511,122846,64326
182243,13651.209203101918,1671628880.354,511,122846,64326
182244,13651.2162878939,1671628880.443,511,122781,64319
182244,13651.223372685881,1671628880.443,511,122781,64319
182245,13651.230457477863,1671628880.443,512,122758,64296
182245,13651.237542269844,1671628880.443,512,122758,64296
182246,13651.244627061826,1671628880.443,511,122708,64284
182246,13651.251711853807,1671628880.443,511,122708,64284
182247,13651.258796645789,1671628880.443,512,122676,64290
182247,13651.26588143777,1671628880.443,512,122676,64290
182248,13651.288510434462,1671628880.443,514,122679,64283
182248,13651.295489504071,1671628880.443,514,122679,64283
182249,13651.30246857368,1671628880.443,512,122627,64281
182249,13651.309447643289,1671628880.443,512,122627,64281
182250,13651.316426712898,1671628880.535,514,122640,64259
182250,13651.323405782507,1671628880.535,514,122640,64259
182251,13651.330384852115,1671628880.535,512,122618,64273
182251,13651.337363921724,1671628880.535,512,122618,64273
182252,13651.344342991333,1671628880.535,514,122614,64239
182252,13651.351322060942,1671628880.535,514,122614,64239
182253,13651.35830113055,1671628880.535,514,122638,64273
182253,13651.36528020016,1671628880.535,514,122638,64273
182254,13651.372259269769,1671628880.535,512,122553,64253
182254,13651.379238339377,1671628880.535,512,122553,64253
182255,13651.386217408986,1671628880.535,515,122615,64240
182255,13651.393196478595,1671628880.535,515,122615,64240
182256,13651.400175548204,1671628880.636,515,122583,64238
182256,13651.407154617813,1671628880.636,515,122583,64238
182257,13651.414133687422,1671628880.636,512,122578,64258
182257,13651.42111275703,1671628880.636,512,122578,64258
182258,13651.444399869664,1671628880.636,514,122595,64250
182258,13651.45209881122,1671628880.636,514,122595,64250
182259,13651.459797752776,1671628880.636,511,122562,64229
182259,13651.467496694331,1671628880.636,511,122562,64229
182260,13651.475195635887,1671628880.636,510,122530,64232
182260,13651.482894577442,1671628880.636,510,122530,64232
182261,13651.490593518998,1671628880.636,512,122546,64228
182261,13651.498292460554,1671628880.636,512,122546,64228
182262,13651.50599140211,1671628880.728,512,122519,64206
182262,13651.513690343665,1671628880.728,512,122519,64206
182263,13651.52138928522,1671628880.728,514,122525,64210
182263,13651.529088226776,1671628880.728,514,122525,64210
182264,13651.536787168332,1671628880.728,514,122485,64209
182264,13651.544486109888,1671628880.728,514,122485,64209
182265,13651.552185051443,1671628880.728,512,122480,64206
182265,13651.559883992999,1671628880.728,512,122480,64206
182266,13651.567582934555,1671628880.728,512,122479,64184
182266,13651.57528187611,1671628880.728,512,122479,64184
182267,13651.582980817666,1671628880.728,512,122483,64193
182267,13651.590679759222,1671628880.728,512,122483,64193
182268,13651.603376803645,1671628880.818,511,122419,64213
182268,13651.610562938153,1671628880.818,511,122419,64213
182269,13651.61774907266,1671628880.818,514,122545,64209
182269,13651.624935207168,1671628880.818,514,122545,64209
182270,13651.632121341676,1671628880.818,514,122457,64210
182270,13651.639307476184,1671628880.818,514,122457,64210
182271,13651.646493610691,1671628880.818,515,122506,64212
182271,13651.653679745199,1671628880.818,515,122506,64212
182272,13651.660865879707,1671628880.818,515,122506,64219
182272,13651.668052014214,1671628880.818,515,122506,64219
182273,13651.675238148722,1671628880.818,514,122483,64214
182273,13651.68242428323,1671628880.818,514,122483,64214
182274,13651.689610417738,1671628880.916,512,122469,64219
182274,13651.696796552245,1671628880.916,512,122469,64219
182275,13651.703982686753,1671628880.916,512,122455,64220
182275,13651.71116882126,1671628880.916,512,122455,64220
182276,13651.718354955769,1671628880.916,511,122560,64212
182276,13651.725541090276,1671628880.916,511,122560,64212
182277,13651.732727224784,1671628880.916,514,122454,64213
182277,13651.739913359292,1671628880.916,514,122454,64213
182278,13651.758955909094,1671628880.916,515,122542,64230
182278,13651.766576231395,1671628880.916,515,122542,64230
182279,13651.774196553697,1671628880.916,515,122549,64226
182279,13651.781816875999,1671628880.916,515,122549,64226
182280,13651.7894371983,1671628881.012,514,122537,64211
182280,13651.797057520602,1671628881.012,514,122537,64211
182281,13651.804677842903,1671628881.012,512,122549,64221
182281,13651.812298165205,1671628881.012,512,122549,64221
182282,13651.819918487507,1671628881.012,512,122514,64217
182282,13651.827538809808,1671628881.012,512,122514,64217
182283,13651.83515913211,1671628881.012,514,122500,64230
182283,13651.842779454411,1671628881.012,514,122500,64230
182284,13651.850399776713,1671628881.012,514,122583,64224
182284,13651.858020099015,1671628881.012,514,122583,64224
182285,13651.865640421316,1671628881.012,514,122560,64230
182285,13651.873260743618,1671628881.012,514,122560,64230
182286,13651.88088106592,1671628881.107,514,122499,64217
182286,13651.88850138822,1671628881.107,514,122499,64217
182287,13651.896121710522,1671628881.107,515,122581,64221
182287,13651.903742032824,1671628881.107,515,122581,64221
182288,13651.91932604403,1671628881.107,514,122565,64227
182288,13651.92678774779,1671628881.107,514,122565,64227
182289,13651.934249451551,1671628881.107,511,122535,64214
182289,13651.941711155312,1671628881.107,511,122535,64214
182290,13651.949172859073,1671628881.107,512,122599,64246
182290,13651.956634562834,1671628881.107,512,122599,64246
182291,13651.964096266594,1671628881.107,514,122591,64254
182291,13651.971557970355,1671628881.107,514,122591,64254
182292,13651.979019674116,1671628881.19,512,122604,64247
182292,13651.986481377877,1671628881.19,512,122604,64247
182293,13651.993943081638,1671628881.19,514,122610,64245
182293,13652.001404785398,1671628881.19,514,122610,64245
182294,13652.00886648916,1671628881.19,515,122576,64259
182294,13652.01632819292,1671628881.19,515,122576,64259
182295,13652.02378989668,1671628881.19,514,122615,64251
182295,13652.031251600441,1671628881.19,514,122615,64251
182296,13652.038713304202,1671628881.19,514,122594,64253
182296,13652.046175007963,1671628881.19,514,122594,64253
182297,13652.053636711724,1671628881.19,512,122589,64259
182297,13652.061098415485,1671628881.19,512,122589,64259
182298,13652.06497880961,1671628881.298,514,122683,64258
182298,13652.071501956498,1671628881.298,514,122683,64258
182299,13652.078025103385,1671628881.298,512,122644,64261
182299,13652.084548250272,1671628881.298,512,122644,64261
182300,13652.091071397159,1671628881.298,515,122713,64259
182300,13652.097594544046,1671628881.298,515,122713,64259
182301,13652.104117690933,1671628881.298,515,122625,64255
182301,13652.11064083782,1671628881.298,515,122625,64255
182302,13652.117163984707,1671628881.298,514,122665,64268
182302,13652.123687131594,1671628881.298,514,122665,64268
182303,13652.130210278481,1671628881.298,512,122634,64263
182303,13652.136733425368,1671628881.298,512,122634,64263
182304,13652.143256572255,1671628881.386,514,122656,64261
182304,13652.149779719142,1671628881.386,514,122656,64261
182305,13652.15630286603,1671628881.386,512,122725,64297
182305,13652.162826012916,1671628881.386,512,122725,64297
182306,13652.169349159803,1671628881.386,512,122687,64298
182306,13652.17587230669,1671628881.386,512,122687,64298
182307,13652.182395453578,1671628881.386,511,122654,64279
182307,13652.188918600465,1671628881.386,511,122654,64279
182308,13652.231714203952,1671628881.386,514,122721,64289
182308,13652.238634014393,1671628881.386,514,122721,64289
182309,13652.245553824834,1671628881.386,515,122671,64261
182309,13652.252473635275,1671628881.386,515,122671,64261
182310,13652.259393445716,1671628881.479,515,122733,64259
182310,13652.266313256157,1671628881.479,515,122733,64259
182311,13652.273233066599,1671628881.479,512,122585,64229
182311,13652.28015287704,1671628881.479,512,122585,64229
182312,13652.28707268748,1671628881.479,514,122516,64196
182312,13652.293992497922,1671628881.479,514,122516,64196
182313,13652.300912308363,1671628881.479,510,122503,64204
182313,13652.307832118804,1671628881.479,510,122503,64204
182314,13652.314751929245,1671628881.479,515,122476,64185
182314,13652.321671739686,1671628881.479,515,122476,64185
182315,13652.328591550127,1671628881.479,515,122437,64206
182315,13652.335511360568,1671628881.479,515,122437,64206
182316,13652.34243117101,1671628881.568,512,122433,64176
182316,13652.34935098145,1671628881.568,512,122433,64176
182317,13652.356270791892,1671628881.568,515,122474,64186
182317,13652.363190602333,1671628881.568,515,122474,64186
182318,13652.384167934733,1671628881.568,514,122354,64172
182318,13652.391246385676,1671628881.568,514,122354,64172
182319,13652.398324836618,1671628881.568,514,122432,64168
182319,13652.405403287561,1671628881.568,514,122432,64168
182320,13652.412481738504,1671628881.568,512,122406,64151
182320,13652.419560189446,1671628881.568,512,122406,64151
182321,13652.426638640389,1671628881.568,512,122322,64132
182321,13652.433717091331,1671628881.568,512,122322,64132
182322,13652.440795542274,1671628881.665,512,122388,64165
182322,13652.447873993216,1671628881.665,512,122388,64165
182323,13652.454952444159,1671628881.665,512,122337,64147
182323,13652.462030895102,1671628881.665,512,122337,64147
182324,13652.469109346044,1671628881.665,514,122295,64134
182324,13652.476187796987,1671628881.665,514,122295,64134
182325,13652.48326624793,1671628881.665,514,122329,64132
182325,13652.490344698872,1671628881.665,514,122329,64132
182326,13652.497423149814,1671628881.665,512,122313,64142
182326,13652.504501600757,1671628881.665,512,122313,64142
182327,13652.5115800517,1671628881.665,514,122270,64140
182327,13652.518658502642,1671628881.665,514,122270,64140
182328,13652.54068495264,1671628881.757,514,122255,64134
182328,13652.548206975416,1671628881.757,514,122255,64134
182329,13652.555728998192,1671628881.757,512,122270,64141
182329,13652.563251020967,1671628881.757,512,122270,64141
182330,13652.570773043743,1671628881.757,514,122257,64101
182330,13652.578295066518,1671628881.757,514,122257,64101
182331,13652.585817089293,1671628881.757,512,122208,64125
182331,13652.593339112069,1671628881.757,512,122208,64125
182332,13652.600861134844,1671628881.757,515,122173,64127
182332,13652.60838315762,1671628881.757,515,122173,64127
182333,13652.615905180395,1671628881.757,516,122211,64117
182333,13652.62342720317,1671628881.757,516,122211,64117
182334,13652.630949225946,1671628881.852,515,122183,64105
182334,13652.638471248722,1671628881.852,515,122183,64105
182335,13652.645993271497,1671628881.852,514,122142,64080
182335,13652.653515294272,1671628881.852,514,122142,64080
182336,13652.661037317048,1671628881.852,515,122182,64084
182336,13652.668559339823,1671628881.852,515,122182,64084
182337,13652.676081362599,1671628881.852,514,122257,64111
182337,13652.683603385374,1671628881.852,514,122257,64111
182338,13652.69600879136,1671628881.852,514,122147,64103
182338,13652.70339573854,1671628881.852,514,122147,64103
182339,13652.71078268572,1671628881.852,512,122218,64098
182339,13652.718169632899,1671628881.852,512,122218,64098
182340,13652.725556580079,1671628881.959,514,122193,64101
182340,13652.732943527259,1671628881.959,514,122193,64101
182341,13652.740330474438,1671628881.959,514,122174,64105
182341,13652.747717421618,1671628881.959,514,122174,64105
182342,13652.755104368798,1671628881.959,512,122265,64101
182342,13652.762491315978,1671628881.959,512,122265,64101
182343,13652.769878263158,1671628881.959,515,122186,64097
182343,13652.777265210338,1671628881.959,515,122186,64097
182344,13652.784652157517,1671628881.959,512,122218,64106
182344,13652.792039104697,1671628881.959,512,122218,64106
182345,13652.799426051877,1671628881.959,512,122212,64100
182345,13652.806812999057,1671628881.959,512,122212,64100
182346,13652.814199946237,1671628882.037,514,122167,64120
182346,13652.821586893417,1671628882.037,514,122167,64120
182347,13652.828973840597,1671628882.037,514,122256,64132
182347,13652.836360787776,1671628882.037,514,122256,64132
182348,13652.860071477828,1671628882.037,514,122201,64082
182348,13652.866860443497,1671628882.037,514,122201,64082
182349,13652.873649409166,1671628882.037,514,122219,64091
182349,13652.880438374836,1671628882.037,514,122219,64091
182350,13652.887227340505,1671628882.037,514,122265,64099
182350,13652.894016306174,1671628882.037,514,122265,64099
182351,13652.900805271844,1671628882.037,514,122293,64107
182351,13652.907594237513,1671628882.037,514,122293,64107
182352,13652.914383203182,1671628882.133,511,122232,64095
182352,13652.921172168852,1671628882.133,511,122232,64095
182353,13652.927961134521,1671628882.133,511,122192,64100
182353,13652.93475010019,1671628882.133,511,122192,64100
182354,13652.94153906586,1671628882.133,514,122288,64110
182354,13652.948328031529,1671628882.133,514,122288,64110
182355,13652.955116997198,1671628882.133,510,122343,64095
182355,13652.961905962868,1671628882.133,510,122343,64095
182356,13652.968694928537,1671628882.133,514,122262,64098
182356,13652.975483894206,1671628882.133,514,122262,64098
182357,13652.982272859876,1671628882.133,515,122354,64091
182357,13652.989061825545,1671628882.133,515,122354,64091
182358,13653.008455423085,1671628882.227,512,122292,64116
182358,13653.015905077411,1671628882.227,512,122292,64116
182359,13653.023354731737,1671628882.227,514,122287,64117
182359,13653.030804386062,1671628882.227,514,122287,64117
182360,13653.038254040388,1671628882.227,514,122343,64125
182360,13653.045703694714,1671628882.227,514,122343,64125
182361,13653.05315334904,1671628882.227,512,122344,64117
182361,13653.060603003365,1671628882.227,512,122344,64117
182362,13653.06805265769,1671628882.227,512,122318,64129
182362,13653.075502312016,1671628882.227,512,122318,64129
182363,13653.082951966342,1671628882.227,511,122323,64109
182363,13653.090401620668,1671628882.227,511,122323,64109
182364,13653.097851274993,1671628882.313,514,122316,64128
182364,13653.10530092932,1671628882.313,514,122316,64128
182365,13653.112750583645,1671628882.313,512,122402,64129
182365,13653.12020023797,1671628882.313,512,122402,64129
182366,13653.127649892296,1671628882.313,514,122345,64154
182366,13653.135099546622,1671628882.313,514,122345,64154
182367,13653.142549200948,1671628882.313,512,122394,64135
182367,13653.149998855273,1671628882.313,512,122394,64135
182368,13653.159628402225,1671628882.313,512,122407,64130
182368,13653.166401457098,1671628882.313,512,122407,64130
182369,13653.17317451197,1671628882.313,514,122361,64138
182369,13653.179947566843,1671628882.313,514,122361,64138
182370,13653.186720621716,1671628882.415,514,122374,64129
182370,13653.193493676588,1671628882.415,514,122374,64129
182371,13653.200266731461,1671628882.415,512,122393,64131
182371,13653.207039786334,1671628882.415,512,122393,64131
182372,13653.213812841206,1671628882.415,515,122425,64157
182372,13653.220585896079,1671628882.415,515,122425,64157
182373,13653.227358950951,1671628882.415,515,122343,64149
182373,13653.234132005824,1671628882.415,515,122343,64149
182374,13653.240905060697,1671628882.415,515,122387,64146
182374,13653.24767811557,1671628882.415,515,122387,64146
182375,13653.254451170442,1671628882.415,512,122457,64143
182375,13653.261224225314,1671628882.415,512,122457,64143
182376,13653.267997280187,1671628882.509,514,122417,64160
182376,13653.27477033506,1671628882.509,514,122417,64160
182377,13653.281543389932,1671628882.509,514,122403,64153
182377,13653.288316444805,1671628882.509,514,122403,64153
182378,13653.322248020422,1671628882.509,514,122429,64156
182378,13653.329776521554,1671628882.509,514,122429,64156
182379,13653.337305022686,1671628882.509,512,122412,64153
182379,13653.344833523817,1671628882.509,512,122412,64153
182380,13653.352362024949,1671628882.509,514,122384,64132
182380,13653.35989052608,1671628882.509,514,122384,64132
182381,13653.367419027212,1671628882.509,516,122377,64121
182381,13653.374947528344,1671628882.509,516,122377,64121
182382,13653.382476029476,1671628882.619,514,122284,64098
182382,13653.390004530607,1671628882.619,514,122284,64098
182383,13653.397533031739,1671628882.619,514,122255,64071
182383,13653.40506153287,1671628882.619,514,122255,64071
182384,13653.412590034002,1671628882.619,512,122258,64076
182384,13653.420118535134,1671628882.619,512,122258,64076
182385,13653.427647036266,1671628882.619,512,122191,64064
182385,13653.435175537397,1671628882.619,512,122191,64064
182386,13653.442704038529,1671628882.619,515,122220,64044
182386,13653.45023253966,1671628882.619,515,122220,64044
182387,13653.457761040792,1671628882.619,515,122179,64056
182387,13653.465289541924,1671628882.619,515,122179,64056
182388,13653.496189381009,1671628882.689,515,122088,64047
182388,13653.504758573308,1671628882.689,515,122088,64047
182389,13653.513327765608,1671628882.689,515,122108,64062
182389,13653.521896957907,1671628882.689,515,122108,64062
182390,13653.530466150207,1671628882.689,514,122088,64031
182390,13653.539035342506,1671628882.689,514,122088,64031
182391,13653.547604534806,1671628882.689,514,122109,64031
182391,13653.556173727105,1671628882.689,514,122109,64031
182392,13653.564742919405,1671628882.689,512,122105,64030
182392,13653.573312111705,1671628882.689,512,122105,64030
182393,13653.581881304004,1671628882.689,512,122050,64030
182393,13653.590450496304,1671628882.689,512,122050,64030
182394,13653.599019688603,1671628882.787,514,122039,64026
182394,13653.607588880903,1671628882.787,514,122039,64026
182395,13653.616158073202,1671628882.787,515,122070,64036
182395,13653.624727265502,1671628882.787,515,122070,64036
182396,13653.633296457801,1671628882.787,514,122016,64021
182396,13653.641865650101,1671628882.787,514,122016,64021
182397,13653.6504348424,1671628882.787,512,121958,64004
182397,13653.6590040347,1671628882.787,512,121958,64004
182398,13653.629810295757,1671628882.787,514,122039,64012
182398,13653.637294608965,1671628882.787,514,122039,64012
182399,13653.644778922173,1671628882.787,512,122011,64011
182399,13653.65226323538,1671628882.787,512,122011,64011
182400,13653.659747548589,1671628882.885,512,122013,63996
182400,13653.667231861797,1671628882.885,512,122013,63996
182401,13653.674716175005,1671628882.885,512,121979,63978
182401,13653.682200488212,1671628882.885,512,121979,63978
182402,13653.68968480142,1671628882.885,515,121956,63988
182402,13653.697169114628,1671628882.885,515,121956,63988
182403,13653.704653427836,1671628882.885,514,121921,63978
182403,13653.712137741044,1671628882.885,514,121921,63978
182404,13653.719622054252,1671628882.885,515,121948,63980
182404,13653.72710636746,1671628882.885,515,121948,63980
182405,13653.734590680668,1671628882.885,515,121899,63993
182405,13653.742074993876,1671628882.885,515,121899,63993
182406,13653.749559307083,1671628882.978,514,121944,63997
182406,13653.757043620291,1671628882.978,514,121944,63997
182407,13653.7645279335,1671628882.978,515,121924,63974
182407,13653.772012246707,1671628882.978,515,121924,63974
182408,13653.791741934197,1671628882.978,514,121911,64009
182408,13653.799135825193,1671628882.978,514,121911,64009
182409,13653.806529716188,1671628882.978,514,121892,63967
182409,13653.813923607184,1671628882.978,514,121892,63967
182410,13653.82131749818,1671628882.978,514,121925,63976
182410,13653.828711389175,1671628882.978,514,121925,63976
182411,13653.83610528017,1671628882.978,514,121945,63977
182411,13653.843499171166,1671628882.978,514,121945,63977
182412,13653.850893062161,1671628883.071,515,121947,64001
182412,13653.858286953156,1671628883.071,515,121947,64001
182413,13653.865680844152,1671628883.071,515,122031,63970
182413,13653.873074735147,1671628883.071,515,122031,63970
182414,13653.880468626143,1671628883.071,515,121962,63982
182414,13653.887862517138,1671628883.071,515,121962,63982
182415,13653.895256408134,1671628883.071,512,121995,63976
182415,13653.90265029913,1671628883.071,512,121995,63976
182416,13653.910044190125,1671628883.071,514,122011,63991
182416,13653.91743808112,1671628883.071,514,122011,63991
182417,13653.924831972115,1671628883.071,512,122031,63986
182417,13653.932225863111,1671628883.071,512,122031,63986
182418,13653.946113347532,1671628883.164,515,121926,63974
182418,13653.953348309467,1671628883.164,515,121926,63974
182419,13653.960583271402,1671628883.164,515,121944,63982
182419,13653.967818233337,1671628883.164,515,121944,63982
182420,13653.975053195272,1671628883.164,516,121917,63968
182420,13653.982288157207,1671628883.164,516,121917,63968
182421,13653.989523119142,1671628883.164,514,121971,63985
182421,13653.996758081077,1671628883.164,514,121971,63985
182422,13654.003993043012,1671628883.164,514,121974,63975
182422,13654.011228004947,1671628883.164,514,121974,63975
182423,13654.018462966882,1671628883.164,514,121968,63965
182423,13654.025697928817,1671628883.164,514,121968,63965
182424,13654.032932890752,1671628883.261,512,122001,63985
182424,13654.040167852687,1671628883.261,512,122001,63985
182425,13654.047402814622,1671628883.261,514,122011,63973
182425,13654.054637776557,1671628883.261,514,122011,63973
182426,13654.061872738492,1671628883.261,514,121977,63996
182426,13654.069107700427,1671628883.261,514,121977,63996
182427,13654.076342662362,1671628883.261,515,122014,63974
182427,13654.083577624297,1671628883.261,515,122014,63974
182428,13654.10494715028,1671628883.261,515,122071,63980
182428,13654.112500727697,1671628883.261,515,122071,63980
182429,13654.120054305115,1671628883.261,515,122016,63991
182429,13654.127607882532,1671628883.261,515,122016,63991
182430,13654.13516145995,1671628883.354,514,122046,63973
182430,13654.142715037367,1671628883.354,514,122046,63973
182431,13654.150268614785,1671628883.354,514,121958,63966
182431,13654.157822192203,1671628883.354,514,121958,63966
182432,13654.16537576962,1671628883.354,515,122043,63980
182432,13654.172929347038,1671628883.354,515,122043,63980
182433,13654.180482924456,1671628883.354,514,122014,63996
182433,13654.188036501873,1671628883.354,514,122014,63996
182434,13654.195590079291,1671628883.354,517,122098,64016
182434,13654.203143656709,1671628883.354,517,122098,64016
182435,13654.210697234126,1671628883.354,514,122004,63986
182435,13654.218250811544,1671628883.354,514,122004,63986
182436,13654.225804388961,1671628883.441,515,122043,63994
182436,13654.23335796638,1671628883.441,515,122043,63994
182437,13654.240911543797,1671628883.441,514,122067,63995
182437,13654.248465121214,1671628883.441,514,122067,63995
182438,13654.257914937347,1671628883.441,511,122020,63978
182438,13654.264858291124,1671628883.441,511,122020,63978
182439,13654.271801644902,1671628883.441,511,122072,64000
182439,13654.278744998679,1671628883.441,511,122072,64000
182440,13654.285688352456,1671628883.441,514,122100,64001
182440,13654.292631706234,1671628883.441,514,122100,64001
182441,13654.299575060011,1671628883.441,514,122085,63997
182441,13654.306518413789,1671628883.441,514,122085,63997
182442,13654.313461767566,1671628883.539,514,122026,63983
182442,13654.320405121343,1671628883.539,514,122026,63983
182443,13654.32734847512,1671628883.539,514,122031,63975
182443,13654.334291828898,1671628883.539,514,122031,63975
182444,13654.341235182676,1671628883.539,515,121969,63945
182444,13654.348178536453,1671628883.539,515,121969,63945
182445,13654.35512189023,1671628883.539,512,121923,63928
182445,13654.362065244008,1671628883.539,512,121923,63928
182446,13654.369008597785,1671628883.539,514,121869,63936
182446,13654.375951951562,1671628883.539,514,121869,63936
182447,13654.38289530534,1671628883.539,515,121865,63919
182447,13654.389838659117,1671628883.539,515,121865,63919
182448,13654.415418256913,1671628883.636,512,121850,63902
182448,13654.423091692443,1671628883.636,512,121850,63902
182449,13654.430765127972,1671628883.636,515,121823,63895
182449,13654.438438563502,1671628883.636,515,121823,63895
182450,13654.446111999032,1671628883.636,514,121754,63888
182450,13654.453785434562,1671628883.636,514,121754,63888
182451,13654.461458870092,1671628883.636,515,121736,63867
182451,13654.469132305621,1671628883.636,515,121736,63867
182452,13654.476805741151,1671628883.636,515,121706,63875
182452,13654.48447917668,1671628883.636,515,121706,63875
182453,13654.49215261221,1671628883.636,514,121743,63860
182453,13654.49982604774,1671628883.636,514,121743,63860
182454,13654.50749948327,1671628883.728,514,121740,63857
182454,13654.5151729188,1671628883.728,514,121740,63857
182455,13654.52284635433,1671628883.728,514,121672,63872
182455,13654.53051978986,1671628883.728,514,121672,63872
182456,13654.53819322539,1671628883.728,516,121708,63859
182456,13654.54586666092,1671628883.728,516,121708,63859
182457,13654.553540096449,1671628883.728,514,121735,63854
182457,13654.561213531979,1671628883.728,514,121735,63854
182458,13654.572522292963,1671628883.728,515,121721,63863
182458,13654.579704470765,1671628883.728,515,121721,63863
182459,13654.586886648567,1671628883.728,514,121728,63861
182459,13654.594068826369,1671628883.728,514,121728,63861
182460,13654.601251004171,1671628883.82,515,121714,63844
182460,13654.608433181973,1671628883.82,515,121714,63844
182461,13654.615615359775,1671628883.82,514,121675,63848
182461,13654.622797537577,1671628883.82,514,121675,63848
182462,13654.629979715379,1671628883.82,515,121641,63840
182462,13654.63716189318,1671628883.82,515,121641,63840
182463,13654.644344070983,1671628883.82,514,121596,63838
182463,13654.651526248785,1671628883.82,514,121596,63838
182464,13654.658708426587,1671628883.82,512,121637,63820
182464,13654.665890604389,1671628883.82,512,121637,63820
182465,13654.67307278219,1671628883.82,515,121563,63804
182465,13654.680254959992,1671628883.82,515,121563,63804
182466,13654.687437137794,1671628883.914,514,121575,63818
182466,13654.694619315596,1671628883.914,514,121575,63818
182467,13654.701801493398,1671628883.914,514,121584,63800
182467,13654.7089836712,1671628883.914,514,121584,63800
182468,13654.726829472624,1671628883.914,515,121591,63818
182468,13654.734166582517,1671628883.914,515,121591,63818
182469,13654.74150369241,1671628883.914,512,121599,63803
182469,13654.748840802304,1671628883.914,512,121599,63803
182470,13654.756177912197,1671628883.914,514,121602,63782
182470,13654.76351502209,1671628883.914,514,121602,63782
182471,13654.770852131984,1671628883.914,516,121594,63799
182471,13654.778189241877,1671628883.914,516,121594,63799
182472,13654.78552635177,1671628884.007,515,121609,63809
182472,13654.792863461664,1671628884.007,515,121609,63809
182473,13654.800200571557,1671628884.007,515,121547,63819
182473,13654.80753768145,1671628884.007,515,121547,63819
182474,13654.814874791344,1671628884.007,516,121621,63802
182474,13654.822211901237,1671628884.007,516,121621,63802
182475,13654.82954901113,1671628884.007,516,121614,63806
182475,13654.836886121024,1671628884.007,516,121614,63806
182476,13654.844223230917,1671628884.007,514,121641,63804
182476,13654.85156034081,1671628884.007,514,121641,63804
182477,13654.858897450704,1671628884.007,512,121626,63803
182477,13654.866234560597,1671628884.007,512,121626,63803
182478,13654.882262566054,1671628884.104,515,121652,63815
182478,13654.889484015981,1671628884.104,515,121652,63815
182479,13654.896705465908,1671628884.104,515,121661,63829
182479,13654.903926915835,1671628884.104,515,121661,63829
182480,13654.911148365762,1671628884.104,514,121667,63805
182480,13654.918369815688,1671628884.104,514,121667,63805
182481,13654.925591265615,1671628884.104,515,121656,63806
182481,13654.932812715542,1671628884.104,515,121656,63806
182482,13654.94003416547,1671628884.104,516,121701,63821
182482,13654.947255615396,1671628884.104,516,121701,63821
182483,13654.954477065323,1671628884.104,515,121633,63812
182483,13654.96169851525,1671628884.104,515,121633,63812
182484,13654.968919965177,1671628884.192,514,121602,63819
182484,13654.976141415103,1671628884.192,514,121602,63819
182485,13654.98336286503,1671628884.192,514,121638,63811
182485,13654.990584314957,1671628884.192,514,121638,63811
182486,13654.997805764884,1671628884.192,515,121699,63804
182486,13655.005027214811,1671628884.192,515,121699,63804
182487,13655.012248664738,1671628884.192,514,121679,63830
182487,13655.019470114665,1671628884.192,514,121679,63830
182488,13655.037656739938,1671628884.192,515,121628,63806
182488,13655.044538253445,1671628884.192,515,121628,63806
182489,13655.051419766953,1671628884.192,515,121708,63826
182489,13655.05830128046,1671628884.192,515,121708,63826
182490,13655.065182793967,1671628884.287,515,121670,63806
182490,13655.072064307475,1671628884.287,515,121670,63806
182491,13655.078945820982,1671628884.287,515,121659,63813
182491,13655.08582733449,1671628884.287,515,121659,63813
182492,13655.092708847997,1671628884.287,514,121689,63807
182492,13655.099590361504,1671628884.287,514,121689,63807
182493,13655.106471875011,1671628884.287,514,121670,63825
182493,13655.113353388519,1671628884.287,514,121670,63825
182494,13655.120234902026,1671628884.287,516,121740,63838
182494,13655.127116415533,1671628884.287,516,121740,63838
182495,13655.13399792904,1671628884.287,514,121719,63810
182495,13655.140879442548,1671628884.287,514,121719,63810
182496,13655.147760956055,1671628884.386,514,121732,63821
182496,13655.154642469563,1671628884.386,514,121732,63821
182497,13655.16152398307,1671628884.386,516,121766,63839
182497,13655.168405496577,1671628884.386,516,121766,63839
182498,13655.196211713926,1671628884.386,515,121704,63818
182498,13655.203869393754,1671628884.386,515,121704,63818
182499,13655.211527073581,1671628884.386,515,121687,63829
182499,13655.219184753409,1671628884.386,515,121687,63829
182500,13655.226842433236,1671628884.386,515,121772,63827
182500,13655.234500113063,1671628884.386,515,121772,63827
182501,13655.24215779289,1671628884.386,515,121776,63823
182501,13655.249815472718,1671628884.386,515,121776,63823
182502,13655.257473152546,1671628884.483,515,121783,63828
182502,13655.265130832373,1671628884.483,515,121783,63828
182503,13655.2727885122,1671628884.483,514,121785,63828
182503,13655.280446192028,1671628884.483,514,121785,63828
182504,13655.288103871855,1671628884.483,515,121809,63837
182504,13655.295761551683,1671628884.483,515,121809,63837
182505,13655.30341923151,1671628884.483,515,121776,63838
182505,13655.311076911337,1671628884.483,515,121776,63838
182506,13655.318734591165,1671628884.483,516,121768,63803
182506,13655.326392270992,1671628884.483,516,121768,63803
182507,13655.33404995082,1671628884.483,511,121665,63790
182507,13655.341707630647,1671628884.483,511,121665,63790
182508,13655.35857745851,1671628884.572,514,121666,63771
182508,13655.366110099016,1671628884.572,514,121666,63771
182509,13655.373642739522,1671628884.572,514,121570,63750
182509,13655.381175380027,1671628884.572,514,121570,63750
182510,13655.388708020533,1671628884.572,512,121539,63744
182510,13655.396240661039,1671628884.572,512,121539,63744
182511,13655.403773301545,1671628884.572,514,121485,63711
182511,13655.41130594205,1671628884.572,514,121485,63711
182512,13655.418838582556,1671628884.572,514,121451,63704
182512,13655.426371223062,1671628884.572,514,121451,63704
182513,13655.433903863568,1671628884.572,514,121474,63721
182513,13655.441436504074,1671628884.572,514,121474,63721
182514,13655.44896914458,1671628884.665,514,121474,63705
182514,13655.456501785085,1671628884.665,514,121474,63705
182515,13655.464034425591,1671628884.665,514,121409,63711
182515,13655.471567066097,1671628884.665,514,121409,63711
182516,13655.479099706603,1671628884.665,514,121363,63692
182516,13655.486632347109,1671628884.665,514,121363,63692
182517,13655.494164987615,1671628884.665,515,121400,63703
182517,13655.50169762812,1671628884.665,515,121400,63703
182518,13655.509435971797,1671628884.665,512,121366,63688
182518,13655.51668029742,1671628884.665,512,121366,63688
182519,13655.523924623043,1671628884.665,514,121323,63695
182519,13655.531168948666,1671628884.665,514,121323,63695
182520,13655.53841327429,1671628884.762,515,121385,63689
182520,13655.545657599912,1671628884.762,515,121385,63689
182521,13655.552901925535,1671628884.762,515,121346,63676
182521,13655.560146251159,1671628884.762,515,121346,63676
182522,13655.567390576782,1671628884.762,515,121350,63683
182522,13655.574634902405,1671628884.762,515,121350,63683
182523,13655.581879228028,1671628884.762,515,121332,63686
182523,13655.589123553651,1671628884.762,515,121332,63686
182524,13655.596367879274,1671628884.762,514,121329,63672
182524,13655.603612204897,1671628884.762,514,121329,63672
182525,13655.61085653052,1671628884.762,514,121278,63665
182525,13655.618100856143,1671628884.762,514,121278,63665
182526,13655.625345181767,1671628884.853,512,121348,63664
182526,13655.63258950739,1671628884.853,512,121348,63664
182527,13655.639833833013,1671628884.853,514,121264,63640
182527,13655.647078158636,1671628884.853,514,121264,63640
182528,13655.667597439942,1671628884.853,515,121329,63658
182528,13655.674861842672,1671628884.853,515,121329,63658
182529,13655.682126245401,1671628884.853,515,121250,63636
182529,13655.689390648131,1671628884.853,515,121250,63636
182530,13655.69665505086,1671628884.853,514,121272,63652
182530,13655.70391945359,1671628884.853,514,121272,63652
182531,13655.71118385632,1671628884.853,515,121263,63642
182531,13655.71844825905,1671628884.853,515,121263,63642
182532,13655.725712661779,1671628884.947,514,121255,63638
182532,13655.732977064508,1671628884.947,514,121255,63638
182533,13655.740241467238,1671628884.947,512,121301,63635
182533,13655.747505869967,1671628884.947,512,121301,63635
182534,13655.754770272697,1671628884.947,512,121239,63634
182534,13655.762034675427,1671628884.947,512,121239,63634
182535,13655.769299078156,1671628884.947,511,121274,63635
182535,13655.776563480886,1671628884.947,511,121274,63635
182536,13655.783827883615,1671628884.947,514,121234,63637
182536,13655.791092286345,1671628884.947,514,121234,63637
182537,13655.798356689074,1671628884.947,516,121242,63635
182537,13655.805621091804,1671628884.947,516,121242,63635
182538,13655.822613144175,1671628885.036,512,121245,63628
182538,13655.829954907953,1671628885.036,512,121245,63628
182539,13655.83729667173,1671628885.036,514,121311,63637
182539,13655.844638435508,1671628885.036,514,121311,63637
182540,13655.851980199286,1671628885.036,515,121302,63638
182540,13655.859321963064,1671628885.036,515,121302,63638
182541,13655.866663726842,1671628885.036,511,121275,63630
182541,13655.87400549062,1671628885.036,511,121275,63630
182542,13655.881347254397,1671628885.036,514,121193,63633
182542,13655.888689018175,1671628885.036,514,121193,63633
182543,13655.896030781953,1671628885.036,514,121295,63644
182543,13655.90337254573,1671628885.036,514,121295,63644
182544,13655.910714309508,1671628885.128,515,121224,63641
182544,13655.918056073286,1671628885.128,515,121224,63641
182545,13655.925397837063,1671628885.128,515,121323,63630
182545,13655.932739600841,1671628885.128,515,121323,63630
182546,13655.940081364619,1671628885.128,515,121340,63630
182546,13655.947423128397,1671628885.128,515,121340,63630
182547,13655.954764892174,1671628885.128,516,121374,63633
182547,13655.962106655952,1671628885.128,516,121374,63633
182548,13655.972673278678,1671628885.128,512,121308,63645
182548,13655.97979875408,1671628885.128,512,121308,63645
182549,13655.986924229483,1671628885.128,514,121319,63624
182549,13655.994049704885,1671628885.128,514,121319,63624
182550,13656.001175180287,1671628885.228,514,121297,63648
182550,13656.008300655689,1671628885.228,514,121297,63648
182551,13656.01542613109,1671628885.228,515,121351,63630
182551,13656.022551606493,1671628885.228,515,121351,63630
182552,13656.029677081895,1671628885.228,515,121355,63655
182552,13656.036802557297,1671628885.228,515,121355,63655
182553,13656.0439280327,1671628885.228,514,121323,63625
182553,13656.051053508101,1671628885.228,514,121323,63625
182554,13656.058178983503,1671628885.228,515,121368,63640
182554,13656.065304458905,1671628885.228,515,121368,63640
182555,13656.072429934307,1671628885.228,516,121318,63650
182555,13656.07955540971,1671628885.228,516,121318,63650
182556,13656.086680885111,1671628885.318,515,121340,63632
182556,13656.093806360514,1671628885.318,515,121340,63632
182557,13656.100931835916,1671628885.318,512,121360,63635
182557,13656.108057311318,1671628885.318,512,121360,63635
182558,13656.133972117203,1671628885.318,515,121425,63663
182558,13656.141233404733,1671628885.318,515,121425,63663
182559,13656.148494692263,1671628885.318,514,121385,63677
182559,13656.155755979793,1671628885.318,514,121385,63677
182560,13656.163017267323,1671628885.318,515,121397,63666
182560,13656.170278554853,1671628885.318,515,121397,63666
182561,13656.177539842383,1671628885.318,516,121421,63659
182561,13656.184801129913,1671628885.318,516,121421,63659
182562,13656.192062417444,1671628885.414,514,121430,63636
182562,13656.199323704974,1671628885.414,514,121430,63636
182563,13656.206584992504,1671628885.414,514,121414,63664
182563,13656.213846280034,1671628885.414,514,121414,63664
182564,13656.221107567564,1671628885.414,515,121485,63653
182564,13656.228368855094,1671628885.414,515,121485,63653
182565,13656.235630142624,1671628885.414,514,121404,63686
182565,13656.242891430154,1671628885.414,514,121404,63686
182566,13656.250152717685,1671628885.414,512,121468,63674
182566,13656.257414005215,1671628885.414,512,121468,63674
182567,13656.264675292745,1671628885.414,515,121496,63678
182567,13656.271936580275,1671628885.414,515,121496,63678
182568,13656.289711498406,1671628885.512,516,121455,63677
182568,13656.297190025185,1671628885.512,516,121455,63677
182569,13656.304668551964,1671628885.512,516,121380,63648
182569,13656.312147078743,1671628885.512,516,121380,63648
182570,13656.319625605522,1671628885.512,515,121413,63646
182570,13656.3271041323,1671628885.512,515,121413,63646
182571,13656.33458265908,1671628885.512,515,121384,63620
182571,13656.342061185858,1671628885.512,515,121384,63620
182572,13656.349539712637,1671628885.512,515,121293,63591
182572,13656.357018239416,1671628885.512,515,121293,63591
182573,13656.364496766195,1671628885.512,515,121297,63594
182573,13656.371975292974,1671628885.512,515,121297,63594
182574,13656.379453819753,1671628885.604,515,121140,63562
182574,13656.386932346531,1671628885.604,515,121140,63562
182575,13656.39441087331,1671628885.604,515,121199,63563
182575,13656.40188940009,1671628885.604,515,121199,63563
182576,13656.409367926868,1671628885.604,516,121113,63555
182576,13656.416846453647,1671628885.604,516,121113,63555
182577,13656.424324980426,1671628885.604,514,121127,63555
182577,13656.431803507205,1671628885.604,514,121127,63555
182578,13656.44890623497,1671628885.604,515,121119,63549
182578,13656.456146811175,1671628885.604,515,121119,63549
182579,13656.46338738738,1671628885.604,514,121077,63527
182579,13656.470627963587,1671628885.604,514,121077,63527
182580,13656.477868539792,1671628885.691,514,121097,63521
182580,13656.485109115998,1671628885.691,514,121097,63521
182581,13656.492349692204,1671628885.691,514,121089,63556
182581,13656.49959026841,1671628885.691,514,121089,63556
182582,13656.506830844615,1671628885.691,515,121029,63518
182582,13656.514071420821,1671628885.691,515,121029,63518
182583,13656.521311997027,1671628885.691,514,121028,63498
182583,13656.528552573232,1671628885.691,514,121028,63498
182584,13656.535793149438,1671628885.691,515,120952,63515
182584,13656.543033725644,1671628885.691,515,120952,63515
182585,13656.55027430185,1671628885.691,516,120969,63514
182585,13656.557514878055,1671628885.691,516,120969,63514
182586,13656.564755454261,1671628885.787,516,120978,63505
182586,13656.571996030467,1671628885.787,516,120978,63505
182587,13656.579236606673,1671628885.787,515,120960,63535
182587,13656.586477182878,1671628885.787,515,120960,63535
182588,13656.598559754357,1671628885.787,514,120970,63503
182588,13656.605869371422,1671628885.787,514,120970,63503
182589,13656.613178988488,1671628885.787,515,121020,63521
182589,13656.620488605553,1671628885.787,515,121020,63521
182590,13656.627798222618,1671628885.787,514,120933,63487
182590,13656.635107839684,1671628885.787,514,120933,63487
182591,13656.64241745675,1671628885.787,516,120918,63491
182591,13656.649727073815,1671628885.787,516,120918,63491
182592,13656.65703669088,1671628885.887,514,120988,63472
182592,13656.664346307945,1671628885.887,514,120988,63472
182593,13656.67165592501,1671628885.887,515,120921,63480
182593,13656.678965542076,1671628885.887,515,120921,63480
182594,13656.686275159142,1671628885.887,514,120950,63464
182594,13656.693584776207,1671628885.887,514,120950,63464
182595,13656.700894393272,1671628885.887,514,120929,63458
182595,13656.708204010338,1671628885.887,514,120929,63458
182596,13656.715513627403,1671628885.887,515,120948,63480
182596,13656.722823244469,1671628885.887,515,120948,63480
182597,13656.730132861534,1671628885.887,512,120875,63471
182597,13656.7374424786,1671628885.887,512,120875,63471
182598,13656.763206693444,1671628885.977,514,120874,63442
182598,13656.770988218996,1671628885.977,514,120874,63442
182599,13656.778769744547,1671628885.977,515,120957,63462
182599,13656.7865512701,1671628885.977,515,120957,63462
182600,13656.794332795651,1671628885.977,514,120890,63466
182600,13656.802114321203,1671628885.977,514,120890,63466
182601,13656.809895846754,1671628885.977,514,120944,63457
182601,13656.817677372306,1671628885.977,514,120944,63457
182602,13656.825458897858,1671628885.977,514,120876,63452
182602,13656.83324042341,1671628885.977,514,120876,63452
182603,13656.841021948961,1671628885.977,515,120900,63471
182603,13656.848803474513,1671628885.977,515,120900,63471
182604,13656.856585000065,1671628886.067,512,120937,63461
182604,13656.864366525617,1671628886.067,512,120937,63461
182605,13656.872148051169,1671628886.067,515,120891,63454
182605,13656.87992957672,1671628886.067,515,120891,63454
182606,13656.887711102272,1671628886.067,515,120916,63439
182606,13656.895492627824,1671628886.067,515,120916,63439
182607,13656.903274153376,1671628886.067,514,120958,63464
182607,13656.911055678927,1671628886.067,514,120958,63464
182608,13656.912184543015,1671628886.067,512,120929,63455
182608,13656.919175083389,1671628886.067,512,120929,63455
182609,13656.926165623763,1671628886.067,514,120935,63475
182609,13656.933156164137,1671628886.067,514,120935,63475
182610,13656.940146704512,1671628886.164,515,120895,63451
182610,13656.947137244886,1671628886.164,515,120895,63451
182611,13656.95412778526,1671628886.164,512,120934,63456
182611,13656.961118325635,1671628886.164,512,120934,63456
182612,13656.968108866009,1671628886.164,512,120930,63445
182612,13656.975099406383,1671628886.164,512,120930,63445
182613,13656.982089946758,1671628886.164,514,120913,63448
182613,13656.989080487132,1671628886.164,514,120913,63448
182614,13656.996071027506,1671628886.164,512,120932,63461
182614,13657.00306156788,1671628886.164,512,120932,63461
182615,13657.010052108255,1671628886.164,514,120955,63469
182615,13657.01704264863,1671628886.164,514,120955,63469
182616,13657.024033189004,1671628886.257,514,120969,63465
182616,13657.031023729378,1671628886.257,514,120969,63465
182617,13657.038014269752,1671628886.257,514,120942,63463
182617,13657.045004810127,1671628886.257,514,120942,63463
182618,13657.070788990863,1671628886.257,512,120980,63461
182618,13657.078142702372,1671628886.257,512,120980,63461
182619,13657.085496413882,1671628886.257,512,120977,63464
182619,13657.092850125391,1671628886.257,512,120977,63464
182620,13657.1002038369,1671628886.257,511,120963,63461
182620,13657.10755754841,1671628886.257,511,120963,63461
182621,13657.11491125992,1671628886.257,512,120939,63455
182621,13657.12226497143,1671628886.257,512,120939,63455
182622,13657.129618682939,1671628886.348,512,120986,63462
182622,13657.136972394448,1671628886.348,512,120986,63462
182623,13657.144326105958,1671628886.348,515,120964,63466
182623,13657.151679817467,1671628886.348,515,120964,63466
182624,13657.159033528977,1671628886.348,514,120996,63459
182624,13657.166387240486,1671628886.348,514,120996,63459
182625,13657.173740951996,1671628886.348,512,120987,63475
182625,13657.181094663505,1671628886.348,512,120987,63475
182626,13657.188448375015,1671628886.348,514,120941,63479
182626,13657.195802086524,1671628886.348,514,120941,63479
182627,13657.203155798034,1671628886.348,512,120988,63481
182627,13657.210509509543,1671628886.348,512,120988,63481
182628,13657.223076830893,1671628886.458,514,120965,63466
182628,13657.23017372244,1671628886.458,514,120965,63466
182629,13657.237270613989,1671628886.458,514,121038,63473
182629,13657.244367505537,1671628886.458,514,121038,63473
182630,13657.251464397084,1671628886.458,514,121056,63480
182630,13657.258561288632,1671628886.458,514,121056,63480
182631,13657.26565818018,1671628886.458,515,121025,63467
182631,13657.272755071728,1671628886.458,515,121025,63467
182632,13657.279851963276,1671628886.458,514,121066,63479
182632,13657.286948854824,1671628886.458,514,121066,63479
182633,13657.294045746372,1671628886.458,514,121011,63473
182633,13657.30114263792,1671628886.458,514,121011,63473
182634,13657.308239529468,1671628886.537,512,121098,63466
182634,13657.315336421016,1671628886.537,512,121098,63466
182635,13657.322433312564,1671628886.537,514,121072,63473
182635,13657.329530204112,1671628886.537,514,121072,63473
182636,13657.33662709566,1671628886.537,514,120973,63442
182636,13657.343723987207,1671628886.537,514,120973,63442
182637,13657.350820878755,1671628886.537,512,120949,63430
182637,13657.357917770303,1671628886.537,512,120949,63430
182638,13657.384988628228,1671628886.537,514,120851,63416
182638,13657.391264565424,1671628886.537,514,120851,63416
182639,13657.39754050262,1671628886.537,515,120877,63406
182639,13657.403816439815,1671628886.537,515,120877,63406
182640,13657.410092377011,1671628886.636,514,120806,63411
182640,13657.416368314207,1671628886.636,514,120806,63411
182641,13657.422644251403,1671628886.636,512,120774,63381
182641,13657.428920188599,1671628886.636,512,120774,63381
182642,13657.435196125794,1671628886.636,511,120792,63357
182642,13657.44147206299,1671628886.636,511,120792,63357
182643,13657.447748000186,1671628886.636,512,120732,63359
182643,13657.454023937382,1671628886.636,512,120732,63359
182644,13657.460299874578,1671628886.636,514,120740,63346
182644,13657.466575811774,1671628886.636,514,120740,63346
182645,13657.47285174897,1671628886.636,515,120691,63341
182645,13657.479127686165,1671628886.636,515,120691,63341
182646,13657.485403623361,1671628886.728,512,120682,63336
182646,13657.491679560557,1671628886.728,512,120682,63336
182647,13657.497955497753,1671628886.728,512,120712,63353
182647,13657.504231434948,1671628886.728,512,120712,63353
182648,13657.54244575134,1671628886.728,512,120610,63340
182648,13657.549775236655,1671628886.728,512,120610,63340
182649,13657.557104721971,1671628886.728,512,120664,63357
182649,13657.564434207286,1671628886.728,512,120664,63357
182650,13657.571763692602,1671628886.728,512,120590,63332
182650,13657.579093177917,1671628886.728,512,120590,63332
182651,13657.586422663233,1671628886.728,512,120700,63342
182651,13657.593752148548,1671628886.728,512,120700,63342
182652,13657.601081633864,1671628886.818,511,120633,63359
182652,13657.60841111918,1671628886.818,511,120633,63359
182653,13657.615740604495,1671628886.818,514,120594,63317
182653,13657.62307008981,1671628886.818,514,120594,63317
182654,13657.630399575126,1671628886.818,511,120658,63336
182654,13657.637729060441,1671628886.818,511,120658,63336
182655,13657.645058545757,1671628886.818,512,120561,63309
182655,13657.652388031072,1671628886.818,512,120561,63309
182656,13657.659717516388,1671628886.818,512,120519,63305
182656,13657.667047001703,1671628886.818,512,120519,63305
182657,13657.674376487019,1671628886.818,514,120556,63302
182657,13657.681705972334,1671628886.818,514,120556,63302
182658,13657.6934848582,1671628886.914,514,120557,63304
182658,13657.700555504098,1671628886.914,514,120557,63304
182659,13657.707626149995,1671628886.914,511,120519,63318
182659,13657.714696795892,1671628886.914,511,120519,63318
182660,13657.72176744179,1671628886.914,511,120527,63298
182660,13657.728838087687,1671628886.914,511,120527,63298
182661,13657.735908733584,1671628886.914,512,120504,63313
182661,13657.742979379482,1671628886.914,512,120504,63313
182662,13657.75005002538,1671628886.914,514,120503,63304
182662,13657.757120671276,1671628886.914,514,120503,63304
182663,13657.764191317174,1671628886.914,512,120589,63293
182663,13657.771261963071,1671628886.914,512,120589,63293
182664,13657.778332608968,1671628887.006,514,120535,63299
182664,13657.785403254866,1671628887.006,514,120535,63299
182665,13657.792473900763,1671628887.006,511,120548,63291
182665,13657.79954454666,1671628887.006,511,120548,63291
182666,13657.806615192558,1671628887.006,511,120558,63295
182666,13657.813685838455,1671628887.006,511,120558,63295
182667,13657.820756484352,1671628887.006,512,120495,63297
182667,13657.82782713025,1671628887.006,512,120495,63297
182668,13657.85116078885,1671628887.006,511,120545,63298
182668,13657.858368156809,1671628887.006,511,120545,63298
182669,13657.865575524767,1671628887.006,514,120555,63295
182669,13657.872782892726,1671628887.006,514,120555,63295
182670,13657.879990260684,1671628887.105,514,120477,63269
182670,13657.887197628643,1671628887.105,514,120477,63269
182671,13657.894404996601,1671628887.105,512,120513,63277
182671,13657.90161236456,1671628887.105,512,120513,63277
182672,13657.908819732518,1671628887.105,514,120561,63301
182672,13657.916027100477,1671628887.105,514,120561,63301
182673,13657.923234468435,1671628887.105,512,120514,63322
182673,13657.930441836394,1671628887.105,512,120514,63322
182674,13657.937649204352,1671628887.105,511,120589,63312
182674,13657.94485657231,1671628887.105,511,120589,63312
182675,13657.952063940269,1671628887.105,512,120547,63297
182675,13657.959271308227,1671628887.105,512,120547,63297
182676,13657.966478676186,1671628887.193,514,120568,63283
182676,13657.973686044144,1671628887.193,514,120568,63283
182677,13657.980893412103,1671628887.193,514,120529,63295
182677,13657.988100780061,1671628887.193,514,120529,63295
182678,13658.00945297629,1671628887.193,515,120528,63283
182678,13658.016564306108,1671628887.193,515,120528,63283
182679,13658.023675635926,1671628887.193,514,120616,63290
182679,13658.030786965744,1671628887.193,514,120616,63290
182680,13658.037898295563,1671628887.193,515,120602,63290
182680,13658.04500962538,1671628887.193,515,120602,63290
182681,13658.052120955199,1671628887.193,511,120530,63283
182681,13658.059232285017,1671628887.193,511,120530,63283
182682,13658.066343614835,1671628887.284,512,120516,63284
182682,13658.073454944653,1671628887.284,512,120516,63284
182683,13658.080566274471,1671628887.284,512,120527,63297
182683,13658.08767760429,1671628887.284,512,120527,63297
182684,13658.094788934108,1671628887.284,512,120604,63281
182684,13658.101900263926,1671628887.284,512,120604,63281
182685,13658.109011593744,1671628887.284,514,120603,63274
182685,13658.116122923562,1671628887.284,514,120603,63274
182686,13658.12323425338,1671628887.284,512,120601,63289
182686,13658.130345583199,1671628887.284,512,120601,63289
182687,13658.137456913017,1671628887.284,514,120569,63296
182687,13658.144568242835,1671628887.284,514,120569,63296
182688,13658.159223164721,1671628887.393,512,120618,63289
182688,13658.166349066352,1671628887.393,512,120618,63289
182689,13658.173474967984,1671628887.393,514,120624,63304
182689,13658.180600869615,1671628887.393,514,120624,63304
182690,13658.187726771246,1671628887.393,512,120642,63298
182690,13658.194852672877,1671628887.393,512,120642,63298
182691,13658.201978574509,1671628887.393,511,120566,63310
182691,13658.20910447614,1671628887.393,511,120566,63310
182692,13658.216230377771,1671628887.393,514,120631,63300
182692,13658.223356279403,1671628887.393,514,120631,63300
182693,13658.230482181034,1671628887.393,514,120608,63304
182693,13658.237608082665,1671628887.393,514,120608,63304
182694,13658.244733984297,1671628887.476,512,120596,63310
182694,13658.251859885928,1671628887.476,512,120596,63310
182695,13658.25898578756,1671628887.476,514,120577,63291
182695,13658.26611168919,1671628887.476,514,120577,63291
182696,13658.273237590822,1671628887.476,514,120666,63319
182696,13658.280363492453,1671628887.476,514,120666,63319
182697,13658.287489394084,1671628887.476,515,120665,63304
182697,13658.294615295716,1671628887.476,515,120665,63304
182698,13658.323165969607,1671628887.476,514,120652,63316
182698,13658.329774202992,1671628887.476,514,120652,63316
182699,13658.336382436377,1671628887.476,514,120609,63294
182699,13658.342990669762,1671628887.476,514,120609,63294
182700,13658.349598903147,1671628887.567,512,120669,63271
182700,13658.356207136532,1671628887.567,512,120669,63271
182701,13658.362815369917,1671628887.567,514,120583,63255
182701,13658.369423603302,1671628887.567,514,120583,63255
182702,13658.376031836688,1671628887.567,514,120497,63236
182702,13658.382640070073,1671628887.567,514,120497,63236
182703,13658.389248303458,1671628887.567,515,120416,63229
182703,13658.395856536843,1671628887.567,515,120416,63229
182704,13658.402464770228,1671628887.567,512,120413,63212
182704,13658.409073003613,1671628887.567,512,120413,63212
182705,13658.415681236998,1671628887.567,514,120351,63219
182705,13658.422289470383,1671628887.567,514,120351,63219
182706,13658.428897703769,1671628887.659,512,120346,63215
182706,13658.435505937154,1671628887.659,512,120346,63215
182707,13658.442114170539,1671628887.659,514,120317,63189
182707,13658.448722403924,1671628887.659,514,120317,63189
182708,13658.472691174928,1671628887.659,511,120280,63192
182708,13658.479854676441,1671628887.659,511,120280,63192
182709,13658.487018177955,1671628887.659,514,120235,63180
182709,13658.494181679469,1671628887.659,514,120235,63180
182710,13658.501345180983,1671628887.659,514,120281,63190
182710,13658.508508682497,1671628887.659,514,120281,63190
182711,13658.51567218401,1671628887.659,512,120261,63187
182711,13658.522835685524,1671628887.659,512,120261,63187
182712,13658.529999187038,1671628887.761,511,120249,63179
182712,13658.537162688552,1671628887.761,511,120249,63179
182713,13658.544326190065,1671628887.761,514,120265,63185
182713,13658.55148969158,1671628887.761,514,120265,63185
182714,13658.558653193093,1671628887.761,512,120257,63186
182714,13658.565816694607,1671628887.761,512,120257,63186
182715,13658.57298019612,1671628887.761,511,120207,63178
182715,13658.580143697634,1671628887.761,511,120207,63178
182716,13658.587307199148,1671628887.761,514,120197,63168
182716,13658.594470700662,1671628887.761,514,120197,63168
182717,13658.601634202176,1671628887.761,514,120148,63172
182717,13658.60879770369,1671628887.761,514,120148,63172
182718,13658.637823695439,1671628887.85,512,120201,63175
182718,13658.645827245608,1671628887.85,512,120201,63175
182719,13658.653830795776,1671628887.85,512,120198,63136
182719,13658.661834345945,1671628887.85,512,120198,63136
182720,13658.669837896114,1671628887.85,514,120156,63159
182720,13658.677841446282,1671628887.85,514,120156,63159
182721,13658.685844996451,1671628887.85,514,120167,63148
182721,13658.69384854662,1671628887.85,514,120167,63148
182722,13658.701852096789,1671628887.85,512,120110,63161
182722,13658.709855646957,1671628887.85,512,120110,63161
182723,13658.717859197126,1671628887.85,514,120146,63145
182723,13658.725862747295,1671628887.85,514,120146,63145
182724,13658.733866297463,1671628887.944,514,120092,63130
182724,13658.741869847632,1671628887.944,514,120092,63130
182725,13658.749873397801,1671628887.944,515,120168,63130
182725,13658.75787694797,1671628887.944,515,120168,63130
182726,13658.765880498138,1671628887.944,514,120141,63144
182726,13658.773884048307,1671628887.944,514,120141,63144
182727,13658.781887598476,1671628887.944,515,120129,63110
182727,13658.789891148645,1671628887.944,515,120129,63110
182728,13658.788215002884,1671628887.944,514,120121,63131
182728,13658.795525436402,1671628887.944,514,120121,63131
182729,13658.802835869921,1671628887.944,512,120119,63116
182729,13658.81014630344,1671628887.944,512,120119,63116
182730,13658.817456736959,1671628888.035,512,120154,63116
182730,13658.824767170478,1671628888.035,512,120154,63116
182731,13658.832077603996,1671628888.035,512,120090,63137
182731,13658.839388037515,1671628888.035,512,120090,63137
182732,13658.846698471034,1671628888.035,512,120126,63145
182732,13658.854008904553,1671628888.035,512,120126,63145
182733,13658.861319338072,1671628888.035,515,120055,63136
182733,13658.86862977159,1671628888.035,515,120055,63136
182734,13658.87594020511,1671628888.035,512,120103,63144
182734,13658.883250638628,1671628888.035,512,120103,63144
182735,13658.890561072147,1671628888.035,514,120140,63136
182735,13658.897871505666,1671628888.035,514,120140,63136
182736,13658.905181939184,1671628888.139,511,120051,63143
182736,13658.912492372703,1671628888.139,511,120051,63143
182737,13658.919802806222,1671628888.139,512,120135,63137
182737,13658.92711323974,1671628888.139,512,120135,63137
182738,13658.945563194673,1671628888.139,512,120084,63132
182738,13658.95338401823,1671628888.139,512,120084,63132
182739,13658.961204841788,1671628888.139,512,120105,63119
182739,13658.969025665345,1671628888.139,512,120105,63119
182740,13658.976846488902,1671628888.139,512,120103,63116
182740,13658.98466731246,1671628888.139,512,120103,63116
182741,13658.992488136017,1671628888.139,512,120038,63131
182741,13659.000308959574,1671628888.139,512,120038,63131
182742,13659.008129783131,1671628888.244,512,120092,63127
182742,13659.015950606688,1671628888.244,512,120092,63127
182743,13659.023771430246,1671628888.244,512,120082,63130
182743,13659.031592253803,1671628888.244,512,120082,63130
182744,13659.03941307736,1671628888.244,512,120174,63119
182744,13659.047233900917,1671628888.244,512,120174,63119
182745,13659.055054724475,1671628888.244,512,120149,63098
182745,13659.062875548032,1671628888.244,512,120149,63098
182746,13659.07069637159,1671628888.244,511,120133,63123
182746,13659.078517195147,1671628888.244,511,120133,63123
182747,13659.086338018704,1671628888.244,514,120143,63123
182747,13659.094158842261,1671628888.244,514,120143,63123
182748,13659.12020977221,1671628888.334,514,120085,63129
182748,13659.128387301724,1671628888.334,514,120085,63129
182749,13659.136564831237,1671628888.334,514,120096,63131
182749,13659.14474236075,1671628888.334,514,120096,63131
182750,13659.152919890263,1671628888.334,514,120146,63118
182750,13659.161097419776,1671628888.334,514,120146,63118
182751,13659.169274949289,1671628888.334,512,120180,63123
182751,13659.177452478802,1671628888.334,512,120180,63123
182752,13659.185630008315,1671628888.334,512,120148,63133
182752,13659.193807537828,1671628888.334,512,120148,63133
182753,13659.20198506734,1671628888.334,511,120153,63120
182753,13659.210162596853,1671628888.334,511,120153,63120
182754,13659.218340126366,1671628888.415,512,120096,63110
182754,13659.22651765588,1671628888.415,512,120096,63110
182755,13659.234695185392,1671628888.415,512,120081,63108
182755,13659.242872714905,1671628888.415,512,120081,63108
182756,13659.251050244418,1671628888.415,514,120163,63089
182756,13659.259227773931,1671628888.415,514,120163,63089
182757,13659.267405303444,1671628888.415,514,119994,63085
182757,13659.275582832957,1671628888.415,514,119994,63085
182758,13659.262282711265,1671628888.415,512,120026,63051
182758,13659.268658788415,1671628888.415,512,120026,63051
182759,13659.275034865565,1671628888.415,511,119901,63040
182759,13659.281410942715,1671628888.415,511,119901,63040
182760,13659.287787019864,1671628888.508,510,119929,63034
182760,13659.294163097014,1671628888.508,510,119929,63034
182761,13659.300539174164,1671628888.508,511,119848,63030
182761,13659.306915251314,1671628888.508,511,119848,63030
182762,13659.313291328464,1671628888.508,512,119851,63025
182762,13659.319667405614,1671628888.508,512,119851,63025
182763,13659.326043482764,1671628888.508,512,119858,63052
182763,13659.332419559914,1671628888.508,512,119858,63052
182764,13659.338795637064,1671628888.508,514,119825,63040
182764,13659.345171714214,1671628888.508,514,119825,63040
182765,13659.351547791364,1671628888.508,514,119782,63021
182765,13659.357923868514,1671628888.508,514,119782,63021
182766,13659.364299945664,1671628888.602,515,119795,63016
182766,13659.370676022814,1671628888.602,515,119795,63016
182767,13659.377052099964,1671628888.602,511,119763,63005
182767,13659.383428177114,1671628888.602,511,119763,63005
182768,13659.414981439631,1671628888.602,511,119776,63004
182768,13659.422271785194,1671628888.602,511,119776,63004
182769,13659.429562130756,1671628888.602,512,119777,63011
182769,13659.436852476318,1671628888.602,512,119777,63011
182770,13659.44414282188,1671628888.602,512,119719,63011
182770,13659.451433167442,1671628888.602,512,119719,63011
182771,13659.458723513004,1671628888.602,512,119735,62974
182771,13659.466013858566,1671628888.602,512,119735,62974
182772,13659.473304204128,1671628888.695,515,119742,62993
182772,13659.48059454969,1671628888.695,515,119742,62993
182773,13659.487884895252,1671628888.695,514,119759,62963
182773,13659.495175240814,1671628888.695,514,119759,62963
182774,13659.502465586376,1671628888.695,514,119730,62986
182774,13659.509755931938,1671628888.695,514,119730,62986
182775,13659.5170462775,1671628888.695,512,119673,62985
182775,13659.524336623062,1671628888.695,512,119673,62985
182776,13659.531626968625,1671628888.695,511,119672,62970
182776,13659.538917314187,1671628888.695,511,119672,62970
182777,13659.546207659749,1671628888.695,514,119654,62959
182777,13659.55349800531,1671628888.695,514,119654,62959
182778,13659.57032866023,1671628888.786,512,119660,62973
182778,13659.577607162924,1671628888.786,512,119660,62973
182779,13659.58488566562,1671628888.786,511,119661,62970
182779,13659.592164168314,1671628888.786,511,119661,62970
182780,13659.59944267101,1671628888.786,514,119675,62971
182780,13659.606721173704,1671628888.786,514,119675,62971
182781,13659.6139996764,1671628888.786,514,119618,62945
182781,13659.621278179095,1671628888.786,514,119618,62945
182782,13659.62855668179,1671628888.786,512,119625,62945
182782,13659.635835184485,1671628888.786,512,119625,62945
182783,13659.64311368718,1671628888.786,512,119642,62965
182783,13659.650392189875,1671628888.786,512,119642,62965
182784,13659.65767069257,1671628888.884,511,119623,62952
182784,13659.664949195265,1671628888.884,511,119623,62952
182785,13659.67222769796,1671628888.884,512,119670,62958
182785,13659.679506200655,1671628888.884,512,119670,62958
182786,13659.68678470335,1671628888.884,512,119649,62970
182786,13659.694063206045,1671628888.884,512,119649,62970
182787,13659.70134170874,1671628888.884,512,119641,62952
182787,13659.708620211435,1671628888.884,512,119641,62952
182788,13659.727371438341,1671628888.884,512,119668,62969
182788,13659.734965868136,1671628888.884,512,119668,62969
182789,13659.742560297931,1671628888.884,514,119626,62947
182789,13659.750154727726,1671628888.884,514,119626,62947
182790,13659.757749157521,1671628888.979,512,119670,62936
182790,13659.765343587316,1671628888.979,512,119670,62936
182791,13659.772938017111,1671628888.979,511,119628,62962
182791,13659.780532446906,1671628888.979,511,119628,62962
182792,13659.788126876701,1671628888.979,512,119669,62963
182792,13659.795721306496,1671628888.979,512,119669,62963
182793,13659.803315736292,1671628888.979,514,119623,62971
182793,13659.810910166087,1671628888.979,514,119623,62971
182794,13659.818504595882,1671628888.979,514,119631,62963
182794,13659.826099025677,1671628888.979,514,119631,62963
182795,13659.833693455472,1671628888.979,515,119633,62962
182795,13659.841287885267,1671628888.979,515,119633,62962
182796,13659.848882315062,1671628889.067,514,119683,62962
182796,13659.856476744857,1671628889.067,514,119683,62962
182797,13659.864071174652,1671628889.067,511,119699,62942
182797,13659.871665604447,1671628889.067,511,119699,62942
182798,13659.883932837585,1671628889.067,512,119711,62972
182798,13659.89099381951,1671628889.067,512,119711,62972
182799,13659.898054801435,1671628889.067,512,119708,62958
182799,13659.90511578336,1671628889.067,512,119708,62958
182800,13659.912176765285,1671628889.067,512,119648,62937
182800,13659.91923774721,1671628889.067,512,119648,62937
182801,13659.926298729135,1671628889.067,512,119721,62956
182801,13659.93335971106,1671628889.067,512,119721,62956
182802,13659.940420692985,1671628889.156,512,119723,62966
182802,13659.94748167491,1671628889.156,512,119723,62966
182803,13659.954542656835,1671628889.156,512,119730,62956
182803,13659.96160363876,1671628889.156,512,119730,62956
182804,13659.968664620685,1671628889.156,514,119716,62954
182804,13659.97572560261,1671628889.156,514,119716,62954
182805,13659.982786584535,1671628889.156,512,119701,62983
182805,13659.98984756646,1671628889.156,512,119701,62983
182806,13659.996908548384,1671628889.156,512,119758,62976
182806,13660.00396953031,1671628889.156,512,119758,62976
182807,13660.011030512234,1671628889.156,512,119707,62985
182807,13660.01809149416,1671628889.156,512,119707,62985
182808,13660.03153769521,1671628889.257,514,119684,62950
182808,13660.038485705965,1671628889.257,514,119684,62950
182809,13660.045433716721,1671628889.257,512,119680,62940
182809,13660.052381727477,1671628889.257,512,119680,62940
182810,13660.059329738233,1671628889.257,514,119616,62917
182810,13660.066277748989,1671628889.257,514,119616,62917
182811,13660.073225759745,1671628889.257,512,119582,62905
182811,13660.0801737705,1671628889.257,512,119582,62905
182812,13660.087121781256,1671628889.257,514,119577,62921
182812,13660.094069792012,1671628889.257,514,119577,62921
182813,13660.101017802768,1671628889.257,512,119472,62893
182813,13660.107965813524,1671628889.257,512,119472,62893
182814,13660.11491382428,1671628889.352,514,119402,62890
182814,13660.121861835036,1671628889.352,514,119402,62890
182815,13660.128809845792,1671628889.352,514,119354,62871
182815,13660.135757856548,1671628889.352,514,119354,62871
182816,13660.142705867303,1671628889.352,512,119394,62862
182816,13660.14965387806,1671628889.352,512,119394,62862
182817,13660.156601888815,1671628889.352,511,119417,62851
182817,13660.163549899571,1671628889.352,511,119417,62851
182818,13660.19588093718,1671628889.352,514,119338,62847
182818,13660.203318323815,1671628889.352,514,119338,62847
182819,13660.210755710448,1671628889.352,515,119323,62835
182819,13660.218193097082,1671628889.352,515,119323,62835
182820,13660.225630483716,1671628889.443,514,119266,62839
182820,13660.23306787035,1671628889.443,514,119266,62839
182821,13660.240505256983,1671628889.443,514,119342,62809
182821,13660.247942643617,1671628889.443,514,119342,62809
182822,13660.25538003025,1671628889.443,514,119217,62826
182822,13660.262817416884,1671628889.443,514,119217,62826
182823,13660.270254803518,1671628889.443,515,119192,62801
182823,13660.277692190151,1671628889.443,515,119192,62801
182824,13660.285129576785,1671628889.443,510,119218,62818
182824,13660.292566963419,1671628889.443,510,119218,62818
182825,13660.300004350052,1671628889.443,511,119130,62817
182825,13660.307441736686,1671628889.443,511,119130,62817
182826,13660.31487912332,1671628889.535,514,119183,62812
182826,13660.322316509953,1671628889.535,514,119183,62812
182827,13660.329753896587,1671628889.535,515,119155,62799
182827,13660.33719128322,1671628889.535,515,119155,62799
182828,13660.348696250456,1671628889.535,515,119136,62800
182828,13660.355855261789,1671628889.535,515,119136,62800
182829,13660.363014273122,1671628889.535,512,119136,62774
182829,13660.370173284455,1671628889.535,512,119136,62774
182830,13660.377332295788,1671628889.535,512,119127,62779
182830,13660.38449130712,1671628889.535,512,119127,62779
182831,13660.391650318454,1671628889.535,514,119123,62767
182831,13660.398809329787,1671628889.535,514,119123,62767
182832,13660.40596834112,1671628889.632,512,119054,62753
182832,13660.413127352453,1671628889.632,512,119054,62753
182833,13660.420286363786,1671628889.632,512,119066,62767
182833,13660.427445375119,1671628889.632,512,119066,62767
182834,13660.434604386452,1671628889.632,514,119047,62769
182834,13660.441763397785,1671628889.632,514,119047,62769
182835,13660.448922409118,1671628889.632,514,119047,62747
