id,lsl_ts,unix_ts,ambient,ir,red
73362,10556.09587755,1671625785.243,525,92621,54076
73362,10556.09587755,1671625785.243,525,92621,54076
73363,10556.0985686,1671625785.243,514,98580,54020
73363,10556.0985686,1671625785.243,514,98580,54020
73364,10556.10125965,1671625785.243,510,98538,54012
73364,10556.10125965,1671625785.243,510,98538,54012
73365,10556.1039507,1671625785.243,510,98520,54003
73365,10556.1039507,1671625785.243,510,98520,54003
73366,10556.10664175,1671625785.243,510,98538,54012
73366,10556.10664175,1671625785.243,510,98538,54012
73367,10556.1093328,1671625785.243,510,98614,54015
73367,10556.1093328,1671625785.243,510,98614,54015
73368,10556.11828325,1671625785.297,510,98499,54002
73368,10556.11828325,1671625785.297,510,98499,54002
73369,10556.127233700001,1671625785.297,509,98567,54002
73369,10556.127233700001,1671625785.297,509,98567,54002
73370,10556.13618415,1671625785.297,510,98555,54009
73370,10556.13618415,1671625785.297,510,98555,54009
73371,10556.1451346,1671625785.297,509,98577,53998
73371,10556.1451346,1671625785.297,509,98577,53998
73372,10556.15408505,1671625785.297,511,98557,53990
73372,10556.15408505,1671625785.297,511,98557,53990
73373,10556.1630355,1671625785.297,511,98587,53983
73373,10556.1630355,1671625785.297,511,98587,53983
73374,10556.171555616667,1671625785.348,510,98548,53994
73374,10556.171555616667,1671625785.348,510,98548,53994
73375,10556.180075733333,1671625785.348,510,98533,53994
73375,10556.180075733333,1671625785.348,510,98533,53994
73376,10556.188595849999,1671625785.348,511,98608,54003
73376,10556.188595849999,1671625785.348,511,98608,54003
73377,10556.197115966666,1671625785.348,511,98603,54012
73377,10556.197115966666,1671625785.348,511,98603,54012
73378,10556.205636083334,1671625785.348,512,98622,54001
73378,10556.205636083334,1671625785.348,512,98622,54001
73379,10556.2141562,1671625785.348,510,98604,54007
73379,10556.2141562,1671625785.348,510,98604,54007
73380,10556.229976033334,1671625785.443,511,98627,53983
73380,10556.229976033334,1671625785.443,511,98627,53983
73381,10556.245795866667,1671625785.443,510,98613,53986
73381,10556.245795866667,1671625785.443,510,98613,53986
73382,10556.261615700001,1671625785.443,510,98534,53981
73382,10556.261615700001,1671625785.443,510,98534,53981
73383,10556.277435533333,1671625785.443,510,98421,53968
73383,10556.277435533333,1671625785.443,510,98421,53968
73384,10556.293255366667,1671625785.443,510,98446,53937
73384,10556.293255366667,1671625785.443,510,98446,53937
73385,10556.3090752,1671625785.443,510,98388,53934
73385,10556.3090752,1671625785.443,510,98388,53934
73386,10556.324381600001,1671625785.534,510,98421,53934
73386,10556.324381600001,1671625785.534,510,98421,53934
73387,10556.339688,1671625785.534,510,98394,53914
73387,10556.339688,1671625785.534,510,98394,53914
73388,10556.3549944,1671625785.534,511,98345,53924
73388,10556.3549944,1671625785.534,511,98345,53924
73389,10556.370300800001,1671625785.534,509,98344,53899
73389,10556.370300800001,1671625785.534,509,98344,53899
73390,10556.3856072,1671625785.534,509,98350,53905
73390,10556.3856072,1671625785.534,509,98350,53905
73391,10556.4009136,1671625785.534,509,98389,53908
73391,10556.4009136,1671625785.534,509,98389,53908
73392,10556.416704916666,1671625785.629,510,98331,53888
73392,10556.416704916666,1671625785.629,510,98331,53888
73393,10556.432496233334,1671625785.629,511,98303,53882
73393,10556.432496233334,1671625785.629,511,98303,53882
73394,10556.44828755,1671625785.629,510,98342,53908
73394,10556.44828755,1671625785.629,510,98342,53908
73395,10556.464078866666,1671625785.629,509,98357,53893
73395,10556.464078866666,1671625785.629,509,98357,53893
73396,10556.479870183333,1671625785.629,510,98275,53908
73396,10556.479870183333,1671625785.629,510,98275,53908
73397,10556.4956615,1671625785.629,509,98339,53896
73397,10556.4956615,1671625785.629,509,98339,53896
73398,10556.511931583333,1671625785.727,510,98335,53886
73398,10556.511931583333,1671625785.727,510,98335,53886
73399,10556.528201666666,1671625785.727,510,98304,53891
73399,10556.528201666666,1671625785.727,510,98304,53891
73400,10556.54447175,1671625785.727,509,98316,53855
73400,10556.54447175,1671625785.727,509,98316,53855
73401,10556.560741833333,1671625785.727,510,98271,53845
73401,10556.560741833333,1671625785.727,510,98271,53845
73402,10556.577011916666,1671625785.727,510,98309,53853
73402,10556.577011916666,1671625785.727,510,98309,53853
73403,10556.593282,1671625785.727,510,98310,53834
73403,10556.593282,1671625785.727,510,98310,53834
73404,10556.608505266666,1671625785.818,510,98359,53814
73404,10556.608505266666,1671625785.818,510,98359,53814
73405,10556.623728533334,1671625785.818,510,98321,53824
73405,10556.623728533334,1671625785.818,510,98321,53824
73406,10556.6389518,1671625785.818,509,98408,53833
73406,10556.6389518,1671625785.818,509,98408,53833
73407,10556.654175066666,1671625785.818,509,98381,53817
73407,10556.654175066666,1671625785.818,509,98381,53817
73408,10556.669398333333,1671625785.818,510,98414,53839
73408,10556.669398333333,1671625785.818,510,98414,53839
73409,10556.6846216,1671625785.818,509,98401,53841
73409,10556.6846216,1671625785.818,509,98401,53841
73410,10556.70041715,1671625785.913,510,98379,53823
73410,10556.70041715,1671625785.913,510,98379,53823
73411,10556.7162127,1671625785.913,508,98424,53846
73411,10556.7162127,1671625785.913,508,98424,53846
73412,10556.732008250001,1671625785.913,509,98457,53842
73412,10556.732008250001,1671625785.913,509,98457,53842
73413,10556.7478038,1671625785.913,511,98448,53827
73413,10556.7478038,1671625785.913,511,98448,53827
73414,10556.76359935,1671625785.913,508,98459,53845
73414,10556.76359935,1671625785.913,508,98459,53845
73415,10556.7793949,1671625785.913,509,98507,53841
73415,10556.7793949,1671625785.913,509,98507,53841
73416,10556.794932966666,1671625786.006,509,98563,53848
73416,10556.794932966666,1671625786.006,509,98563,53848
73417,10556.810471033334,1671625786.006,511,98506,53837
73417,10556.810471033334,1671625786.006,511,98506,53837
73418,10556.826009100001,1671625786.006,511,98569,53839
73418,10556.826009100001,1671625786.006,511,98569,53839
73419,10556.841547166667,1671625786.006,510,98562,53839
73419,10556.841547166667,1671625786.006,510,98562,53839
73420,10556.857085233332,1671625786.006,511,98602,53856
73420,10556.857085233332,1671625786.006,511,98602,53856
73421,10556.8726233,1671625786.006,509,98561,53863
73421,10556.8726233,1671625786.006,509,98561,53863
73422,10556.88827505,1671625786.1,509,98583,53860
73422,10556.88827505,1671625786.1,509,98583,53860
73423,10556.9039268,1671625786.1,510,98524,53853
73423,10556.9039268,1671625786.1,510,98524,53853
73424,10556.91957855,1671625786.1,511,98459,53855
73424,10556.91957855,1671625786.1,511,98459,53855
73425,10556.9352303,1671625786.1,510,98419,53800
73425,10556.9352303,1671625786.1,510,98419,53800
73426,10556.95088205,1671625786.1,511,98292,53787
73426,10556.95088205,1671625786.1,511,98292,53787
73427,10556.9665338,1671625786.1,511,98296,53756
73427,10556.9665338,1671625786.1,511,98296,53756
73428,10556.982676166666,1671625786.197,511,98247,53766
73428,10556.982676166666,1671625786.197,511,98247,53766
73429,10556.998818533333,1671625786.197,511,98233,53770
73429,10556.998818533333,1671625786.197,511,98233,53770
73430,10557.0149609,1671625786.197,510,98188,53764
73430,10557.0149609,1671625786.197,510,98188,53764
73431,10557.031103266667,1671625786.197,510,98224,53745
73431,10557.031103266667,1671625786.197,510,98224,53745
73432,10557.047245633334,1671625786.197,510,98160,53732
73432,10557.047245633334,1671625786.197,510,98160,53732
73433,10557.063388,1671625786.197,510,98210,53755
73433,10557.063388,1671625786.197,510,98210,53755
73434,10557.0775188,1671625786.282,511,98191,53758
73434,10557.0775188,1671625786.282,511,98191,53758
73435,10557.0916496,1671625786.282,509,98183,53742
73435,10557.0916496,1671625786.282,509,98183,53742
73436,10557.105780400001,1671625786.282,510,98214,53745
73436,10557.105780400001,1671625786.282,510,98214,53745
73437,10557.1199112,1671625786.282,511,98165,53762
73437,10557.1199112,1671625786.282,511,98165,53762
73438,10557.134042,1671625786.282,510,98147,53751
73438,10557.134042,1671625786.282,510,98147,53751
73439,10557.1481728,1671625786.282,509,98152,53744
73439,10557.1481728,1671625786.282,509,98152,53744
73440,10557.164363116666,1671625786.379,509,98237,53753
73440,10557.164363116666,1671625786.379,509,98237,53753
73441,10557.180553433333,1671625786.379,511,98250,53745
73441,10557.180553433333,1671625786.379,511,98250,53745
73442,10557.196743749999,1671625786.379,510,98169,53737
73442,10557.196743749999,1671625786.379,510,98169,53737
73443,10557.212934066667,1671625786.379,510,98207,53728
73443,10557.212934066667,1671625786.379,510,98207,53728
73444,10557.229124383333,1671625786.379,511,98234,53735
73444,10557.229124383333,1671625786.379,511,98234,53735
73445,10557.2453147,1671625786.379,510,98210,53730
73445,10557.2453147,1671625786.379,510,98210,53730
73446,10557.2620654,1671625786.479,511,98233,53729
73446,10557.2620654,1671625786.479,511,98233,53729
73447,10557.278816099999,1671625786.479,509,98233,53728
73447,10557.278816099999,1671625786.479,509,98233,53728
73448,10557.2955668,1671625786.479,510,98223,53729
73448,10557.2955668,1671625786.479,510,98223,53729
73449,10557.3123175,1671625786.479,511,98279,53733
73449,10557.3123175,1671625786.479,511,98279,53733
73450,10557.329068199999,1671625786.479,511,98243,53701
73450,10557.329068199999,1671625786.479,511,98243,53701
73451,10557.3458189,1671625786.479,511,98263,53733
73451,10557.3458189,1671625786.479,511,98263,53733
73452,10557.360485483332,1671625786.567,511,98266,53732
73452,10557.360485483332,1671625786.567,511,98266,53732
73453,10557.375152066666,1671625786.567,510,98286,53731
73453,10557.375152066666,1671625786.567,510,98286,53731
73454,10557.389818650001,1671625786.567,510,98297,53722
73454,10557.389818650001,1671625786.567,510,98297,53722
73455,10557.404485233334,1671625786.567,510,98296,53745
73455,10557.404485233334,1671625786.567,510,98296,53745
73456,10557.419151816666,1671625786.567,510,98372,53723
73456,10557.419151816666,1671625786.567,510,98372,53723
73457,10557.4338184,1671625786.567,511,98395,53734
73457,10557.4338184,1671625786.567,511,98395,53734
73458,10557.4501375,1671625786.665,510,98378,53740
73458,10557.4501375,1671625786.665,510,98378,53740
73459,10557.466456600001,1671625786.665,510,98431,53743
73459,10557.466456600001,1671625786.665,510,98431,53743
73460,10557.4827757,1671625786.665,511,98347,53746
73460,10557.4827757,1671625786.665,511,98347,53746
73461,10557.4990948,1671625786.665,510,98424,53748
73461,10557.4990948,1671625786.665,510,98424,53748
73462,10557.5154139,1671625786.665,509,98465,53769
73462,10557.5154139,1671625786.665,509,98465,53769
73463,10557.531733,1671625786.665,509,98526,53756
73463,10557.531733,1671625786.665,509,98526,53756
73464,10557.548614383333,1671625786.767,509,98530,53790
73464,10557.548614383333,1671625786.767,509,98530,53790
73465,10557.565495766667,1671625786.767,510,98455,53760
73465,10557.565495766667,1671625786.767,510,98455,53760
73466,10557.58237715,1671625786.767,509,98398,53744
73466,10557.58237715,1671625786.767,509,98398,53744
73467,10557.599258533333,1671625786.767,511,98321,53718
73467,10557.599258533333,1671625786.767,511,98321,53718
73468,10557.616139916667,1671625786.767,510,98271,53704
73468,10557.616139916667,1671625786.767,510,98271,53704
73469,10557.6330213,1671625786.767,509,98222,53729
73469,10557.6330213,1671625786.767,509,98222,53729
73470,10557.646947866666,1671625786.85,508,98150,53702
73470,10557.646947866666,1671625786.85,508,98150,53702
73471,10557.660874433333,1671625786.85,510,98154,53694
73471,10557.660874433333,1671625786.85,510,98154,53694
73472,10557.674801000001,1671625786.85,510,98140,53695
73472,10557.674801000001,1671625786.85,510,98140,53695
73473,10557.688727566667,1671625786.85,509,98137,53709
73473,10557.688727566667,1671625786.85,509,98137,53709
73474,10557.702654133333,1671625786.85,510,98181,53689
73474,10557.702654133333,1671625786.85,510,98181,53689
73475,10557.7165807,1671625786.85,510,98154,53694
73475,10557.7165807,1671625786.85,510,98154,53694
73476,10557.733186666666,1671625786.95,510,98124,53682
73476,10557.733186666666,1671625786.95,510,98124,53682
73477,10557.749792633333,1671625786.95,510,98112,53681
73477,10557.749792633333,1671625786.95,510,98112,53681
73478,10557.7663986,1671625786.95,509,98140,53658
73478,10557.7663986,1671625786.95,509,98140,53658
73479,10557.783004566667,1671625786.95,509,98125,53658
73479,10557.783004566667,1671625786.95,509,98125,53658
73480,10557.799610533333,1671625786.95,509,98154,53668
73480,10557.799610533333,1671625786.95,509,98154,53668
73481,10557.8162165,1671625786.95,510,98089,53678
73481,10557.8162165,1671625786.95,510,98089,53678
73482,10557.8310733,1671625787.039,511,98107,53675
73482,10557.8310733,1671625787.039,511,98107,53675
73483,10557.8459301,1671625787.039,509,98161,53677
73483,10557.8459301,1671625787.039,509,98161,53677
73484,10557.8607869,1671625787.039,510,98174,53663
73484,10557.8607869,1671625787.039,510,98174,53663
73485,10557.8756437,1671625787.039,509,98199,53684
73485,10557.8756437,1671625787.039,509,98199,53684
73486,10557.8905005,1671625787.039,509,98114,53679
73486,10557.8905005,1671625787.039,509,98114,53679
73487,10557.9053573,1671625787.039,510,98154,53675
73487,10557.9053573,1671625787.039,510,98154,53675
73488,10557.9217992,1671625787.137,510,98149,53678
73488,10557.9217992,1671625787.137,510,98149,53678
73489,10557.9382411,1671625787.137,511,98109,53660
73489,10557.9382411,1671625787.137,511,98109,53660
73490,10557.954683,1671625787.137,511,98168,53669
73490,10557.954683,1671625787.137,511,98168,53669
73491,10557.9711249,1671625787.137,510,98184,53684
73491,10557.9711249,1671625787.137,510,98184,53684
73492,10557.9875668,1671625787.137,509,98186,53668
73492,10557.9875668,1671625787.137,509,98186,53668
73493,10558.0040087,1671625787.137,510,98155,53671
73493,10558.0040087,1671625787.137,510,98155,53671
73494,10558.019179966666,1671625787.229,510,98255,53689
73494,10558.019179966666,1671625787.229,510,98255,53689
73495,10558.034351233333,1671625787.229,510,98232,53680
73495,10558.034351233333,1671625787.229,510,98232,53680
73496,10558.0495225,1671625787.229,511,98242,53684
73496,10558.0495225,1671625787.229,511,98242,53684
73497,10558.064693766666,1671625787.229,510,98221,53693
73497,10558.064693766666,1671625787.229,510,98221,53693
73498,10558.079865033333,1671625787.229,511,98261,53692
73498,10558.079865033333,1671625787.229,511,98261,53692
73499,10558.0950363,1671625787.229,512,98265,53710
73499,10558.0950363,1671625787.229,512,98265,53710
73500,10558.1100907,1671625787.319,511,98345,53690
73500,10558.1100907,1671625787.319,511,98345,53690
73501,10558.125145099999,1671625787.319,511,98380,53691
73501,10558.125145099999,1671625787.319,511,98380,53691
73502,10558.1401995,1671625787.319,510,98309,53695
73502,10558.1401995,1671625787.319,510,98309,53695
73503,10558.1552539,1671625787.319,509,98421,53719
73503,10558.1552539,1671625787.319,509,98421,53719
73504,10558.1703083,1671625787.319,509,98356,53709
73504,10558.1703083,1671625787.319,509,98356,53709
73505,10558.1853627,1671625787.319,511,98457,53738
73505,10558.1853627,1671625787.319,511,98457,53738
73506,10558.2000279,1671625787.407,510,98476,53725
73506,10558.2000279,1671625787.407,510,98476,53725
73507,10558.2146931,1671625787.407,510,98436,53740
73507,10558.2146931,1671625787.407,510,98436,53740
73508,10558.2293583,1671625787.407,511,98474,53726
73508,10558.2293583,1671625787.407,511,98474,53726
73509,10558.2440235,1671625787.407,509,98466,53738
73509,10558.2440235,1671625787.407,509,98466,53738
73510,10558.2586887,1671625787.407,510,98419,53740
73510,10558.2586887,1671625787.407,510,98419,53740
73511,10558.2733539,1671625787.407,510,98365,53711
73511,10558.2733539,1671625787.407,510,98365,53711
73512,10558.28860645,1671625787.498,510,98328,53706
73512,10558.28860645,1671625787.498,510,98328,53706
73513,10558.303859,1671625787.498,512,98276,53672
73513,10558.303859,1671625787.498,512,98276,53672
73514,10558.319111550001,1671625787.498,512,98130,53682
73514,10558.319111550001,1671625787.498,512,98130,53682
73515,10558.334364100001,1671625787.498,511,98174,53653
73515,10558.334364100001,1671625787.498,511,98174,53653
73516,10558.34961665,1671625787.498,511,98145,53678
73516,10558.34961665,1671625787.498,511,98145,53678
73517,10558.3648692,1671625787.498,510,98151,53679
73517,10558.3648692,1671625787.498,510,98151,53679
73518,10558.385960200001,1671625787.625,510,98133,53674
73518,10558.385960200001,1671625787.625,510,98133,53674
73519,10558.4070512,1671625787.625,509,98136,53658
73519,10558.4070512,1671625787.625,509,98136,53658
73520,10558.4281422,1671625787.625,510,98072,53678
73520,10558.4281422,1671625787.625,510,98072,53678
73521,10558.4492332,1671625787.625,511,98119,53672
73521,10558.4492332,1671625787.625,511,98119,53672
73522,10558.4703242,1671625787.625,511,98096,53643
73522,10558.4703242,1671625787.625,511,98096,53643
73523,10558.4914152,1671625787.625,510,98088,53658
73523,10558.4914152,1671625787.625,510,98088,53658
73524,10558.503219816666,1671625787.696,510,98073,53655
73524,10558.503219816666,1671625787.696,510,98073,53655
73525,10558.515024433333,1671625787.696,509,98092,53664
73525,10558.515024433333,1671625787.696,509,98092,53664
73526,10558.526829049999,1671625787.696,509,98066,53667
73526,10558.526829049999,1671625787.696,509,98066,53667
73527,10558.538633666667,1671625787.696,510,98129,53680
73527,10558.538633666667,1671625787.696,510,98129,53680
73528,10558.550438283333,1671625787.696,509,98180,53677
73528,10558.550438283333,1671625787.696,509,98180,53677
73529,10558.5622429,1671625787.696,509,98120,53651
73529,10558.5622429,1671625787.696,509,98120,53651
73530,10558.577436083333,1671625787.787,510,98157,53678
73530,10558.577436083333,1671625787.787,510,98157,53678
73531,10558.592629266666,1671625787.787,509,98123,53659
73531,10558.592629266666,1671625787.787,509,98123,53659
73532,10558.60782245,1671625787.787,509,98145,53660
73532,10558.60782245,1671625787.787,509,98145,53660
73533,10558.623015633333,1671625787.787,509,98163,53674
73533,10558.623015633333,1671625787.787,509,98163,53674
73534,10558.638208816667,1671625787.787,511,98164,53670
73534,10558.638208816667,1671625787.787,511,98164,53670
73535,10558.653402,1671625787.787,509,98188,53670
73535,10558.653402,1671625787.787,509,98188,53670
73536,10558.6687811,1671625787.879,510,98196,53650
73536,10558.6687811,1671625787.879,510,98196,53650
73537,10558.6841602,1671625787.879,510,98220,53672
73537,10558.6841602,1671625787.879,510,98220,53672
73538,10558.6995393,1671625787.879,510,98192,53674
73538,10558.6995393,1671625787.879,510,98192,53674
73539,10558.714918399999,1671625787.879,510,98226,53673
73539,10558.714918399999,1671625787.879,510,98226,53673
73540,10558.7302975,1671625787.879,510,98230,53682
73540,10558.7302975,1671625787.879,510,98230,53682
73541,10558.7456766,1671625787.879,509,98210,53680
73541,10558.7456766,1671625787.879,509,98210,53680
73542,10558.761896416667,1671625787.976,510,98224,53688
73542,10558.761896416667,1671625787.976,510,98224,53688
73543,10558.778116233332,1671625787.976,509,98297,53690
73543,10558.778116233332,1671625787.976,509,98297,53690
73544,10558.79433605,1671625787.976,510,98352,53683
73544,10558.79433605,1671625787.976,510,98352,53683
73545,10558.810555866667,1671625787.976,510,98313,53708
73545,10558.810555866667,1671625787.976,510,98313,53708
73546,10558.826775683332,1671625787.976,510,98349,53702
73546,10558.826775683332,1671625787.976,510,98349,53702
73547,10558.8429955,1671625787.976,511,98363,53700
73547,10558.8429955,1671625787.976,511,98363,53700
73548,10558.858536466665,1671625788.07,510,98321,53714
73548,10558.858536466665,1671625788.07,510,98321,53714
73549,10558.874077433333,1671625788.07,511,98423,53702
73549,10558.874077433333,1671625788.07,511,98423,53702
73550,10558.8896184,1671625788.07,510,98435,53729
73550,10558.8896184,1671625788.07,510,98435,53729
73551,10558.905159366666,1671625788.07,509,98412,53723
73551,10558.905159366666,1671625788.07,509,98412,53723
73552,10558.920700333332,1671625788.07,509,98417,53727
73552,10558.920700333332,1671625788.07,509,98417,53727
73553,10558.9362413,1671625788.07,509,98415,53724
73553,10558.9362413,1671625788.07,509,98415,53724
73554,10558.951551933333,1671625788.162,510,98555,53744
73554,10558.951551933333,1671625788.162,510,98555,53744
73555,10558.966862566667,1671625788.162,511,98527,53758
73555,10558.966862566667,1671625788.162,511,98527,53758
73556,10558.9821732,1671625788.162,511,98534,53747
73556,10558.9821732,1671625788.162,511,98534,53747
73557,10558.997483833333,1671625788.162,511,98522,53752
73557,10558.997483833333,1671625788.162,511,98522,53752
73558,10559.012794466667,1671625788.162,510,98472,53745
73558,10559.012794466667,1671625788.162,510,98472,53745
73559,10559.0281051,1671625788.162,510,98402,53729
73559,10559.0281051,1671625788.162,510,98402,53729
73560,10559.0433588,1671625788.253,510,98340,53699
73560,10559.0433588,1671625788.253,510,98340,53699
73561,10559.0586125,1671625788.253,511,98288,53699
73561,10559.0586125,1671625788.253,511,98288,53699
73562,10559.0738662,1671625788.253,511,98214,53682
73562,10559.0738662,1671625788.253,511,98214,53682
73563,10559.0891199,1671625788.253,514,98194,53690
73563,10559.0891199,1671625788.253,514,98194,53690
73564,10559.104373600001,1671625788.253,509,98209,53682
73564,10559.104373600001,1671625788.253,509,98209,53682
73565,10559.1196273,1671625788.253,512,98230,53685
73565,10559.1196273,1671625788.253,512,98230,53685
73566,10559.13657855,1671625788.355,510,98210,53686
73566,10559.13657855,1671625788.355,510,98210,53686
73567,10559.1535298,1671625788.355,510,98199,53667
73567,10559.1535298,1671625788.355,510,98199,53667
73568,10559.170481050001,1671625788.355,510,98156,53669
73568,10559.170481050001,1671625788.355,510,98156,53669
73569,10559.187432300001,1671625788.355,510,98171,53673
73569,10559.187432300001,1671625788.355,510,98171,53673
73570,10559.20438355,1671625788.355,512,98157,53661
73570,10559.20438355,1671625788.355,512,98157,53661
73571,10559.2213348,1671625788.355,511,98148,53672
73571,10559.2213348,1671625788.355,511,98148,53672
73572,10559.235771683334,1671625788.441,511,98169,53670
73572,10559.235771683334,1671625788.441,511,98169,53670
73573,10559.250208566667,1671625788.441,510,98214,53665
73573,10559.250208566667,1671625788.441,510,98214,53665
73574,10559.264645449999,1671625788.441,511,98136,53673
73574,10559.264645449999,1671625788.441,511,98136,53673
73575,10559.279082333333,1671625788.441,510,98174,53670
73575,10559.279082333333,1671625788.441,510,98174,53670
73576,10559.293519216666,1671625788.441,510,98243,53665
73576,10559.293519216666,1671625788.441,510,98243,53665
73577,10559.3079561,1671625788.441,510,98206,53673
73577,10559.3079561,1671625788.441,510,98206,53673
73578,10559.324047616667,1671625788.538,509,98210,53667
73578,10559.324047616667,1671625788.538,509,98210,53667
73579,10559.340139133334,1671625788.538,514,98199,53662
73579,10559.340139133334,1671625788.538,514,98199,53662
73580,10559.356230649999,1671625788.538,511,98230,53658
73580,10559.356230649999,1671625788.538,511,98230,53658
73581,10559.372322166666,1671625788.538,512,98214,53648
73581,10559.372322166666,1671625788.538,512,98214,53648
73582,10559.388413683333,1671625788.538,510,98191,53665
73582,10559.388413683333,1671625788.538,510,98191,53665
73583,10559.4045052,1671625788.538,509,98202,53681
73583,10559.4045052,1671625788.538,509,98202,53681
73584,10559.41970805,1671625788.629,510,98253,53654
73584,10559.41970805,1671625788.629,510,98253,53654
73585,10559.4349109,1671625788.629,511,98210,53665
73585,10559.4349109,1671625788.629,511,98210,53665
73586,10559.450113750001,1671625788.629,510,98278,53677
73586,10559.450113750001,1671625788.629,510,98278,53677
73587,10559.4653166,1671625788.629,510,98217,53661
73587,10559.4653166,1671625788.629,510,98217,53661
73588,10559.48051945,1671625788.629,511,98222,53687
73588,10559.48051945,1671625788.629,511,98222,53687
73589,10559.4957223,1671625788.629,511,98305,53674
73589,10559.4957223,1671625788.629,511,98305,53674
73590,10559.51213895,1671625788.728,511,98318,53683
73590,10559.51213895,1671625788.728,511,98318,53683
73591,10559.5285556,1671625788.728,510,98362,53701
73591,10559.5285556,1671625788.728,510,98362,53701
73592,10559.54497225,1671625788.728,511,98371,53704
73592,10559.54497225,1671625788.728,511,98371,53704
73593,10559.5613889,1671625788.728,511,98400,53683
73593,10559.5613889,1671625788.728,511,98400,53683
73594,10559.57780555,1671625788.728,510,98470,53703
73594,10559.57780555,1671625788.728,510,98470,53703
73595,10559.5942222,1671625788.728,511,98398,53701
73595,10559.5942222,1671625788.728,511,98398,53701
73596,10559.608831833333,1671625788.815,510,98492,53699
73596,10559.608831833333,1671625788.815,510,98492,53699
73597,10559.623441466667,1671625788.815,509,98422,53710
73597,10559.623441466667,1671625788.815,509,98422,53710
73598,10559.638051099999,1671625788.815,510,98487,53721
73598,10559.638051099999,1671625788.815,510,98487,53721
73599,10559.652660733333,1671625788.815,508,98480,53746
73599,10559.652660733333,1671625788.815,508,98480,53746
73600,10559.667270366666,1671625788.815,510,98543,53729
73600,10559.667270366666,1671625788.815,510,98543,53729
73601,10559.68188,1671625788.815,511,98515,53747
73601,10559.68188,1671625788.815,511,98515,53747
73602,10559.696578316667,1671625788.904,511,98585,53742
73602,10559.696578316667,1671625788.904,511,98585,53742
73603,10559.711276633334,1671625788.904,511,98626,53741
73603,10559.711276633334,1671625788.904,511,98626,53741
73604,10559.72597495,1671625788.904,511,98631,53745
73604,10559.72597495,1671625788.904,511,98631,53745
73605,10559.740673266666,1671625788.904,510,98632,53730
73605,10559.740673266666,1671625788.904,510,98632,53730
73606,10559.755371583333,1671625788.904,509,98613,53760
73606,10559.755371583333,1671625788.904,509,98613,53760
73607,10559.7700699,1671625788.904,510,98650,53751
73607,10559.7700699,1671625788.904,510,98650,53751
73608,10559.788166366667,1671625789.012,509,98575,53739
73608,10559.788166366667,1671625789.012,509,98575,53739
73609,10559.806262833334,1671625789.012,510,98473,53709
73609,10559.806262833334,1671625789.012,510,98473,53709
73610,10559.8243593,1671625789.012,510,98414,53728
73610,10559.8243593,1671625789.012,510,98414,53728
73611,10559.842455766666,1671625789.012,512,98337,53688
73611,10559.842455766666,1671625789.012,512,98337,53688
73612,10559.853277268336,1671625789.012,510,98327,53696
73612,10559.861664731236,1671625789.012,510,98327,53696
73613,10559.870052194135,1671625789.012,510,98264,53700
73613,10559.878439657035,1671625789.012,510,98264,53700
73614,10559.886827119935,1671625789.096,510,98250,53675
73614,10559.895214582835,1671625789.096,510,98250,53675
73615,10559.903602045735,1671625789.096,510,98248,53684
73615,10559.911989508635,1671625789.096,510,98248,53684
73616,10559.920376971535,1671625789.096,509,98266,53661
73616,10559.928764434435,1671625789.096,509,98266,53661
73617,10559.937151897335,1671625789.096,509,98227,53657
73617,10559.945539360235,1671625789.096,509,98227,53657
73618,10559.953926823135,1671625789.096,510,98248,53662
73618,10559.962314286035,1671625789.096,510,98248,53662
73619,10559.970701748935,1671625789.096,511,98260,53669
73619,10559.979089211834,1671625789.096,511,98260,53669
73620,10559.987476674734,1671625789.196,510,98227,53657
73620,10559.995864137634,1671625789.196,510,98227,53657
73621,10560.004251600534,1671625789.196,510,98235,53654
73621,10560.012639063434,1671625789.196,510,98235,53654
73622,10560.005405394782,1671625789.196,510,98267,53658
73622,10560.012859063603,1671625789.196,510,98267,53658
73623,10560.020312732424,1671625789.196,509,98278,53641
73623,10560.027766401245,1671625789.196,509,98278,53641
73624,10560.035220070065,1671625789.196,510,98280,53661
73624,10560.042673738886,1671625789.196,510,98280,53661
73625,10560.050127407707,1671625789.196,509,98292,53653
73625,10560.057581076528,1671625789.196,509,98292,53653
73626,10560.065034745348,1671625789.283,511,98319,53649
73626,10560.07248841417,1671625789.283,511,98319,53649
73627,10560.07994208299,1671625789.283,511,98351,53661
73627,10560.08739575181,1671625789.283,511,98351,53661
73628,10560.094849420631,1671625789.283,510,98302,53656
73628,10560.102303089452,1671625789.283,510,98302,53656
73629,10560.109756758273,1671625789.283,512,98348,53662
73629,10560.117210427094,1671625789.283,512,98348,53662
73630,10560.124664095914,1671625789.283,511,98323,53651
73630,10560.132117764735,1671625789.283,511,98323,53651
73631,10560.139571433556,1671625789.283,510,98303,53643
73631,10560.147025102377,1671625789.283,510,98303,53643
73632,10560.158384477394,1671625789.378,510,98328,53663
73632,10560.165177066945,1671625789.378,510,98328,53663
73633,10560.171969656496,1671625789.378,510,98325,53662
73633,10560.178762246047,1671625789.378,510,98325,53662
73634,10560.185554835598,1671625789.378,510,98325,53627
73634,10560.192347425149,1671625789.378,510,98325,53627
73635,10560.1991400147,1671625789.378,510,98314,53649
73635,10560.20593260425,1671625789.378,510,98314,53649
73636,10560.212725193802,1671625789.378,510,98351,53662
73636,10560.219517783353,1671625789.378,510,98351,53662
73637,10560.226310372904,1671625789.378,509,98428,53676
73637,10560.233102962455,1671625789.378,509,98428,53676
73638,10560.239895552006,1671625789.477,511,98393,53664
73638,10560.246688141557,1671625789.477,511,98393,53664
73639,10560.253480731108,1671625789.477,509,98420,53677
73639,10560.260273320659,1671625789.477,509,98420,53677
73640,10560.26706591021,1671625789.477,511,98405,53667
73640,10560.27385849976,1671625789.477,511,98405,53667
73641,10560.280651089312,1671625789.477,509,98457,53664
73641,10560.287443678862,1671625789.477,509,98457,53664
73642,10560.320414308124,1671625789.477,510,98504,53695
73642,10560.328161236646,1671625789.477,510,98504,53695
73643,10560.335908165169,1671625789.477,512,98523,53675
73643,10560.343655093691,1671625789.477,512,98523,53675
73644,10560.351402022214,1671625789.572,509,98496,53701
73644,10560.359148950736,1671625789.572,509,98496,53701
73645,10560.366895879259,1671625789.572,510,98489,53701
73645,10560.374642807781,1671625789.572,510,98489,53701
73646,10560.382389736304,1671625789.572,510,98526,53685
73646,10560.390136664826,1671625789.572,510,98526,53685
73647,10560.397883593349,1671625789.572,508,98575,53691
73647,10560.405630521871,1671625789.572,508,98575,53691
73648,10560.413377450393,1671625789.572,509,98524,53695
73648,10560.421124378916,1671625789.572,509,98524,53695
73649,10560.428871307438,1671625789.572,509,98596,53714
73649,10560.43661823596,1671625789.572,509,98596,53714
73650,10560.444365164483,1671625789.658,509,98598,53728
73650,10560.452112093006,1671625789.658,509,98598,53728
73651,10560.459859021528,1671625789.658,511,98672,53741
73651,10560.46760595005,1671625789.658,511,98672,53741
73652,10560.476411386198,1671625789.658,512,98628,53710
73652,10560.483337610236,1671625789.658,512,98628,53710
73653,10560.490263834274,1671625789.658,510,98650,53720
73653,10560.497190058311,1671625789.658,510,98650,53720
73654,10560.504116282349,1671625789.658,510,98639,53713
73654,10560.511042506387,1671625789.658,510,98639,53713
73655,10560.517968730424,1671625789.658,510,98566,53702
73655,10560.524894954462,1671625789.658,510,98566,53702
73656,10560.5318211785,1671625789.753,510,98495,53698
73656,10560.538747402537,1671625789.753,510,98495,53698
73657,10560.545673626575,1671625789.753,510,98378,53670
73657,10560.552599850613,1671625789.753,510,98378,53670
73658,10560.55952607465,1671625789.753,509,98339,53666
73658,10560.566452298688,1671625789.753,509,98339,53666
73659,10560.573378522726,1671625789.753,510,98248,53644
73659,10560.580304746763,1671625789.753,510,98248,53644
73660,10560.587230970801,1671625789.753,510,98260,53625
73660,10560.594157194839,1671625789.753,510,98260,53625
73661,10560.601083418876,1671625789.753,510,98263,53630
73661,10560.608009642914,1671625789.753,510,98263,53630
73662,10560.629656682808,1671625789.853,510,98270,53622
73662,10560.637103899793,1671625789.853,510,98270,53622
73663,10560.644551116779,1671625789.853,510,98196,53622
73663,10560.651998333764,1671625789.853,510,98196,53622
73664,10560.65944555075,1671625789.853,511,98189,53617
73664,10560.666892767735,1671625789.853,511,98189,53617
73665,10560.67433998472,1671625789.853,508,98196,53609
73665,10560.681787201705,1671625789.853,508,98196,53609
73666,10560.68923441869,1671625789.853,509,98182,53612
73666,10560.696681635676,1671625789.853,509,98182,53612
73667,10560.704128852662,1671625789.853,511,98236,53597
73667,10560.711576069647,1671625789.853,511,98236,53597
73668,10560.719023286632,1671625789.945,509,98164,53613
73668,10560.726470503618,1671625789.945,509,98164,53613
73669,10560.733917720603,1671625789.945,511,98201,53621
73669,10560.741364937589,1671625789.945,511,98201,53621
73670,10560.748812154574,1671625789.945,510,98262,53628
73670,10560.75625937156,1671625789.945,510,98262,53628
73671,10560.763706588545,1671625789.945,509,98226,53609
73671,10560.77115380553,1671625789.945,509,98226,53609
73672,10560.79015290719,1671625789.945,510,98257,53603
73672,10560.79734390586,1671625789.945,510,98257,53603
73673,10560.804534904531,1671625789.945,510,98276,53603
73673,10560.811725903202,1671625789.945,510,98276,53603
73674,10560.818916901873,1671625790.032,510,98228,53611
73674,10560.826107900544,1671625790.032,510,98228,53611
73675,10560.833298899215,1671625790.032,511,98325,53614
73675,10560.840489897886,1671625790.032,511,98325,53614
73676,10560.847680896557,1671625790.032,512,98260,53581
73676,10560.854871895228,1671625790.032,512,98260,53581
73677,10560.862062893899,1671625790.032,511,98234,53576
73677,10560.86925389257,1671625790.032,511,98234,53576
73678,10560.87644489124,1671625790.032,510,98295,53599
73678,10560.883635889912,1671625790.032,510,98295,53599
73679,10560.890826888583,1671625790.032,510,98277,53604
73679,10560.898017887253,1671625790.032,510,98277,53604
73680,10560.905208885924,1671625790.132,509,98253,53589
73680,10560.912399884595,1671625790.132,509,98253,53589
73681,10560.919590883266,1671625790.132,509,98332,53593
73681,10560.926781881937,1671625790.132,509,98332,53593
73682,10560.94160792893,1671625790.132,509,98250,53602
73682,10560.94910947052,1671625790.132,509,98250,53602
73683,10560.956611012112,1671625790.132,512,98301,53603
73683,10560.964112553704,1671625790.132,512,98301,53603
73684,10560.971614095295,1671625790.132,509,98277,53607
73684,10560.979115636886,1671625790.132,509,98277,53607
73685,10560.986617178478,1671625790.132,509,98371,53605
73685,10560.99411872007,1671625790.132,509,98371,53605
73686,10561.00162026166,1671625790.225,511,98376,53596
73686,10561.009121803252,1671625790.225,511,98376,53596
73687,10561.016623344844,1671625790.225,510,98370,53585
73687,10561.024124886435,1671625790.225,510,98370,53585
73688,10561.031626428026,1671625790.225,511,98436,53638
73688,10561.039127969618,1671625790.225,511,98436,53638
73689,10561.04662951121,1671625790.225,510,98410,53605
73689,10561.0541310528,1671625790.225,510,98410,53605
73690,10561.061632594392,1671625790.225,510,98464,53629
73690,10561.069134135983,1671625790.225,510,98464,53629
73691,10561.076635677575,1671625790.225,510,98490,53604
73691,10561.084137219166,1671625790.225,510,98490,53604
73692,10561.100757192864,1671625790.318,510,98465,53617
73692,10561.108020282578,1671625790.318,510,98465,53617
73693,10561.115283372292,1671625790.318,510,98535,53615
73693,10561.122546462006,1671625790.318,510,98535,53615
73694,10561.12980955172,1671625790.318,510,98543,53633
73694,10561.137072641433,1671625790.318,510,98543,53633
73695,10561.144335731147,1671625790.318,510,98562,53643
73695,10561.151598820861,1671625790.318,510,98562,53643
73696,10561.158861910575,1671625790.318,511,98597,53628
73696,10561.166125000289,1671625790.318,511,98597,53628
73697,10561.173388090003,1671625790.318,509,98634,53649
73697,10561.180651179717,1671625790.318,509,98634,53649
73698,10561.18791426943,1671625790.406,510,98682,53651
73698,10561.195177359145,1671625790.406,510,98682,53651
73699,10561.202440448858,1671625790.406,512,98624,53638
73699,10561.209703538572,1671625790.406,512,98624,53638
73700,10561.216966628286,1671625790.406,512,98548,53635
73700,10561.224229718,1671625790.406,512,98548,53635
73701,10561.231492807714,1671625790.406,509,98468,53598
73701,10561.238755897428,1671625790.406,509,98468,53598
73702,10561.252231693832,1671625790.406,510,98368,53595
73702,10561.259180070923,1671625790.406,510,98368,53595
73703,10561.266128448015,1671625790.406,510,98328,53565
73703,10561.273076825106,1671625790.406,510,98328,53565
73704,10561.280025202197,1671625790.506,510,98232,53559
73704,10561.286973579288,1671625790.506,510,98232,53559
73705,10561.29392195638,1671625790.506,510,98229,53558
73705,10561.30087033347,1671625790.506,510,98229,53558
73706,10561.307818710562,1671625790.506,509,98175,53561
73706,10561.314767087653,1671625790.506,509,98175,53561
73707,10561.321715464745,1671625790.506,508,98191,53560
73707,10561.328663841836,1671625790.506,508,98191,53560
73708,10561.335612218927,1671625790.506,511,98136,53521
73708,10561.342560596018,1671625790.506,511,98136,53521
73709,10561.34950897311,1671625790.506,511,98126,53528
73709,10561.3564573502,1671625790.506,511,98126,53528
73710,10561.363405727292,1671625790.602,508,98118,53532
73710,10561.370354104383,1671625790.602,508,98118,53532
73711,10561.377302481475,1671625790.602,508,98126,53523
73711,10561.384250858566,1671625790.602,508,98126,53523
73712,10561.414280046432,1671625790.602,509,98146,53509
73712,10561.421874290769,1671625790.602,509,98146,53509
73713,10561.429468535105,1671625790.602,509,98082,53513
73713,10561.437062779441,1671625790.602,509,98082,53513
73714,10561.444657023778,1671625790.602,509,98194,53537
73714,10561.452251268114,1671625790.602,509,98194,53537
73715,10561.45984551245,1671625790.602,510,98100,53530
73715,10561.467439756787,1671625790.602,510,98100,53530
73716,10561.475034001123,1671625790.692,510,98164,53515
73716,10561.48262824546,1671625790.692,510,98164,53515
73717,10561.490222489796,1671625790.692,510,98151,53517
73717,10561.497816734132,1671625790.692,510,98151,53517
73718,10561.505410978469,1671625790.692,510,98184,53530
73718,10561.513005222805,1671625790.692,510,98184,53530
73719,10561.520599467141,1671625790.692,509,98236,53530
73719,10561.528193711478,1671625790.692,509,98236,53530
73720,10561.535787955814,1671625790.692,510,98230,53510
73720,10561.54338220015,1671625790.692,510,98230,53510
73721,10561.550976444487,1671625790.692,511,98163,53518
73721,10561.558570688823,1671625790.692,511,98163,53518
73722,10561.568187992396,1671625790.784,511,98157,53509
73722,10561.575259787416,1671625790.784,511,98157,53509
73723,10561.582331582436,1671625790.784,509,98274,53509
73723,10561.589403377457,1671625790.784,509,98274,53509
73724,10561.596475172477,1671625790.784,511,98194,53517
73724,10561.603546967497,1671625790.784,511,98194,53517
73725,10561.610618762517,1671625790.784,510,98257,53501
73725,10561.617690557538,1671625790.784,510,98257,53501
73726,10561.624762352558,1671625790.784,509,98226,53511
73726,10561.631834147578,1671625790.784,509,98226,53511
73727,10561.638905942598,1671625790.784,509,98236,53513
73727,10561.645977737619,1671625790.784,509,98236,53513
73728,10561.653049532639,1671625790.894,509,98302,53515
73728,10561.660121327659,1671625790.894,509,98302,53515
73729,10561.66719312268,1671625790.894,507,98270,53515
73729,10561.6742649177,1671625790.894,507,98270,53515
73730,10561.68133671272,1671625790.894,509,98300,53539
73730,10561.68840850774,1671625790.894,509,98300,53539
73731,10561.69548030276,1671625790.894,509,98314,53525
73731,10561.70255209778,1671625790.894,509,98314,53525
73732,10561.735146928213,1671625790.894,510,98370,53523
73732,10561.743679714386,1671625790.894,510,98370,53523
73733,10561.752212500558,1671625790.894,510,98378,53537
73733,10561.76074528673,1671625790.894,510,98378,53537
73734,10561.769278072903,1671625790.975,509,98365,53544
73734,10561.777810859076,1671625790.975,509,98365,53544
73735,10561.786343645248,1671625790.975,509,98428,53549
73735,10561.79487643142,1671625790.975,509,98428,53549
73736,10561.803409217593,1671625790.975,509,98442,53547
73736,10561.811942003766,1671625790.975,509,98442,53547
73737,10561.820474789938,1671625790.975,509,98437,53565
73737,10561.82900757611,1671625790.975,509,98437,53565
73738,10561.837540362283,1671625790.975,510,98484,53550
73738,10561.846073148456,1671625790.975,510,98484,53550
73739,10561.854605934628,1671625790.975,509,98519,53562
73739,10561.8631387208,1671625790.975,509,98519,53562
73740,10561.871671506973,1671625791.068,510,98572,53575
73740,10561.880204293146,1671625791.068,510,98572,53575
73741,10561.888737079318,1671625791.068,509,98617,53564
73741,10561.89726986549,1671625791.068,509,98617,53564
73742,10561.881606719742,1671625791.068,510,98568,53585
73742,10561.888610882314,1671625791.068,510,98568,53585
73743,10561.895615044885,1671625791.068,509,98610,53569
73743,10561.902619207456,1671625791.068,509,98610,53569
73744,10561.909623370027,1671625791.068,509,98515,53576
73744,10561.916627532599,1671625791.068,509,98515,53576
73745,10561.92363169517,1671625791.068,510,98352,53540
73745,10561.930635857741,1671625791.068,510,98352,53540
73746,10561.937640020313,1671625791.173,510,98226,53516
73746,10561.944644182884,1671625791.173,510,98226,53516
73747,10561.951648345455,1671625791.173,508,98161,53487
73747,10561.958652508027,1671625791.173,508,98161,53487
73748,10561.965656670598,1671625791.173,509,98137,53483
73748,10561.97266083317,1671625791.173,509,98137,53483
73749,10561.97966499574,1671625791.173,512,98084,53462
73749,10561.986669158312,1671625791.173,512,98084,53462
73750,10561.993673320883,1671625791.173,509,98042,53480
73750,10562.000677483455,1671625791.173,509,98042,53480
73751,10562.007681646026,1671625791.173,509,98087,53463
73751,10562.014685808597,1671625791.173,509,98087,53463
73752,10562.049874405182,1671625791.254,509,98088,53458
73752,10562.05801900688,1671625791.254,509,98088,53458
73753,10562.066163608577,1671625791.254,510,98058,53440
73753,10562.074308210274,1671625791.254,510,98058,53440
73754,10562.082452811972,1671625791.254,510,98033,53457
73754,10562.09059741367,1671625791.254,510,98033,53457
73755,10562.098742015367,1671625791.254,508,98023,53436
73755,10562.106886617064,1671625791.254,508,98023,53436
73756,10562.115031218762,1671625791.254,510,98057,53461
73756,10562.12317582046,1671625791.254,510,98057,53461
73757,10562.131320422157,1671625791.254,510,98097,53458
73757,10562.139465023854,1671625791.254,510,98097,53458
73758,10562.147609625552,1671625791.352,510,98145,53463
73758,10562.15575422725,1671625791.352,510,98145,53463
73759,10562.163898828947,1671625791.352,508,98087,53491
73759,10562.172043430644,1671625791.352,508,98087,53491
73760,10562.180188032342,1671625791.352,509,98161,53449
73760,10562.18833263404,1671625791.352,509,98161,53449
73761,10562.196477235737,1671625791.352,510,98176,53461
73761,10562.204621837434,1671625791.352,510,98176,53461
73762,10562.195654033521,1671625791.352,510,98217,53462
73762,10562.203216697824,1671625791.352,510,98217,53462
73763,10562.210779362127,1671625791.352,510,98137,53451
73763,10562.21834202643,1671625791.352,510,98137,53451
73764,10562.225904690733,1671625791.458,511,98153,53477
73764,10562.233467355036,1671625791.458,511,98153,53477
73765,10562.241030019339,1671625791.458,509,98135,53457
73765,10562.248592683642,1671625791.458,509,98135,53457
73766,10562.256155347945,1671625791.458,510,98208,53469
73766,10562.263718012247,1671625791.458,510,98208,53469
73767,10562.27128067655,1671625791.458,509,98211,53454
73767,10562.278843340853,1671625791.458,509,98211,53454
73768,10562.286406005156,1671625791.458,508,98214,53460
73768,10562.293968669459,1671625791.458,508,98214,53460
73769,10562.301531333762,1671625791.458,509,98245,53484
73769,10562.309093998065,1671625791.458,509,98245,53484
73770,10562.316656662368,1671625791.535,510,98169,53460
73770,10562.32421932667,1671625791.535,510,98169,53460
73771,10562.331781990973,1671625791.535,510,98197,53446
73771,10562.339344655276,1671625791.535,510,98197,53446
73772,10562.359191148473,1671625791.535,510,98229,53476
73772,10562.365915381703,1671625791.535,510,98229,53476
73773,10562.372639614932,1671625791.535,510,98334,53479
73773,10562.379363848162,1671625791.535,510,98334,53479
73774,10562.386088081392,1671625791.535,510,98233,53477
73774,10562.392812314622,1671625791.535,510,98233,53477
73775,10562.399536547851,1671625791.535,510,98317,53502
73775,10562.406260781081,1671625791.535,510,98317,53502
73776,10562.41298501431,1671625791.629,510,98324,53493
73776,10562.41970924754,1671625791.629,510,98324,53493
73777,10562.42643348077,1671625791.629,509,98317,53521
73777,10562.433157714,1671625791.629,509,98317,53521
73778,10562.43988194723,1671625791.629,510,98396,53506
73778,10562.44660618046,1671625791.629,510,98396,53506
73779,10562.45333041369,1671625791.629,510,98375,53518
73779,10562.46005464692,1671625791.629,510,98375,53518
73780,10562.466778880149,1671625791.629,510,98449,53507
73780,10562.473503113379,1671625791.629,510,98449,53507
73781,10562.480227346608,1671625791.629,512,98460,53528
73781,10562.486951579838,1671625791.629,512,98460,53528
73782,10562.504895324262,1671625791.729,510,98446,53521
73782,10562.5121849575,1671625791.729,510,98446,53521
73783,10562.51947459074,1671625791.729,508,98508,53536
73783,10562.526764223978,1671625791.729,508,98508,53536
73784,10562.534053857216,1671625791.729,509,98514,53544
73784,10562.541343490455,1671625791.729,509,98514,53544
73785,10562.548633123693,1671625791.729,508,98509,53560
73785,10562.555922756932,1671625791.729,508,98509,53560
73786,10562.56321239017,1671625791.729,508,98534,53543
73786,10562.570502023409,1671625791.729,508,98534,53543
73787,10562.577791656648,1671625791.729,509,98549,53534
73787,10562.585081289886,1671625791.729,509,98549,53534
73788,10562.592370923125,1671625791.821,509,98460,53536
73788,10562.599660556363,1671625791.821,509,98460,53536
73789,10562.606950189602,1671625791.821,509,98405,53519
73789,10562.61423982284,1671625791.821,509,98405,53519
73790,10562.621529456079,1671625791.821,510,98306,53502
73790,10562.628819089317,1671625791.821,510,98306,53502
73791,10562.636108722556,1671625791.821,509,98168,53480
73791,10562.643398355794,1671625791.821,509,98168,53480
73792,10562.666165102464,1671625791.821,508,98123,53472
73792,10562.673358971337,1671625791.821,508,98123,53472
73793,10562.68055284021,1671625791.821,510,98102,53467
73793,10562.687746709082,1671625791.821,510,98102,53467
73794,10562.694940577954,1671625791.911,510,98037,53453
73794,10562.702134446827,1671625791.911,510,98037,53453
73795,10562.7093283157,1671625791.911,508,98103,53451
73795,10562.716522184572,1671625791.911,508,98103,53451
73796,10562.723716053444,1671625791.911,510,98107,53438
73796,10562.730909922317,1671625791.911,510,98107,53438
73797,10562.73810379119,1671625791.911,510,98095,53457
73797,10562.745297660062,1671625791.911,510,98095,53457
73798,10562.752491528934,1671625791.911,509,98038,53430
73798,10562.759685397807,1671625791.911,509,98038,53430
73799,10562.76687926668,1671625791.911,510,98062,53422
73799,10562.774073135552,1671625791.911,510,98062,53422
73800,10562.781267004424,1671625792.003,509,98094,53421
73800,10562.788460873297,1671625792.003,509,98094,53421
73801,10562.795654742169,1671625792.003,510,98147,53426
73801,10562.802848611042,1671625792.003,510,98147,53426
73802,10562.817661797042,1671625792.003,511,98083,53441
73802,10562.82477820114,1671625792.003,511,98083,53441
73803,10562.831894605239,1671625792.003,509,98172,53445
73803,10562.839011009337,1671625792.003,509,98172,53445
73804,10562.846127413435,1671625792.003,510,98117,53447
73804,10562.853243817533,1671625792.003,510,98117,53447
73805,10562.860360221632,1671625792.003,511,98160,53444
73805,10562.86747662573,1671625792.003,511,98160,53444
73806,10562.874593029828,1671625792.102,510,98108,53452
73806,10562.881709433927,1671625792.102,510,98108,53452
73807,10562.888825838025,1671625792.102,509,98219,53443
73807,10562.895942242123,1671625792.102,509,98219,53443
73808,10562.903058646221,1671625792.102,508,98210,53451
73808,10562.91017505032,1671625792.102,508,98210,53451
73809,10562.917291454418,1671625792.102,510,98190,53452
73809,10562.924407858516,1671625792.102,510,98190,53452
73810,10562.931524262614,1671625792.102,511,98160,53444
73810,10562.938640666713,1671625792.102,511,98160,53444
73811,10562.945757070811,1671625792.102,511,98193,53453
73811,10562.95287347491,1671625792.102,511,98193,53453
73812,10562.978548228946,1671625792.198,511,98198,53449
73812,10562.986294218765,1671625792.198,511,98198,53449
73813,10562.994040208583,1671625792.198,510,98180,53443
73813,10563.001786198402,1671625792.198,510,98180,53443
73814,10563.00953218822,1671625792.198,511,98199,53453
73814,10563.017278178038,1671625792.198,511,98199,53453
73815,10563.025024167857,1671625792.198,510,98283,53447
73815,10563.032770157675,1671625792.198,510,98283,53447
73816,10563.040516147494,1671625792.198,509,98270,53459
73816,10563.048262137312,1671625792.198,509,98270,53459
73817,10563.05600812713,1671625792.198,510,98250,53480
73817,10563.063754116949,1671625792.198,510,98250,53480
73818,10563.071500106767,1671625792.283,510,98328,53479
73818,10563.079246096586,1671625792.283,510,98328,53479
73819,10563.086992086404,1671625792.283,509,98294,53481
73819,10563.094738076223,1671625792.283,509,98294,53481
73820,10563.102484066041,1671625792.283,511,98345,53471
73820,10563.11023005586,1671625792.283,511,98345,53471
73821,10563.117976045678,1671625792.283,511,98349,53465
73821,10563.125722035496,1671625792.283,511,98349,53465
73822,10563.130065145044,1671625792.283,511,98370,53493
73822,10563.136809427624,1671625792.283,511,98370,53493
73823,10563.143553710204,1671625792.283,510,98414,53494
73823,10563.150297992785,1671625792.283,510,98414,53494
73824,10563.157042275365,1671625792.381,509,98435,53519
73824,10563.163786557945,1671625792.381,509,98435,53519
73825,10563.170530840525,1671625792.381,510,98468,53511
73825,10563.177275123106,1671625792.381,510,98468,53511
73826,10563.184019405686,1671625792.381,510,98521,53533
73826,10563.190763688266,1671625792.381,510,98521,53533
73827,10563.197507970846,1671625792.381,510,98518,53523
73827,10563.204252253427,1671625792.381,510,98518,53523
73828,10563.210996536007,1671625792.381,512,98551,53532
73828,10563.217740818587,1671625792.381,512,98551,53532
73829,10563.224485101167,1671625792.381,511,98582,53552
73829,10563.231229383748,1671625792.381,511,98582,53552
73830,10563.237973666328,1671625792.478,511,98597,53545
73830,10563.244717948908,1671625792.478,511,98597,53545
73831,10563.251462231488,1671625792.478,511,98593,53559
73831,10563.258206514069,1671625792.478,511,98593,53559
73832,10563.289487963142,1671625792.478,510,98521,53537
73832,10563.297066652942,1671625792.478,510,98521,53537
73833,10563.304645342741,1671625792.478,511,98436,53522
73833,10563.312224032541,1671625792.478,511,98436,53522
73834,10563.31980272234,1671625792.478,509,98307,53483
73834,10563.32738141214,1671625792.478,509,98307,53483
73835,10563.33496010194,1671625792.478,511,98242,53463
73835,10563.34253879174,1671625792.478,511,98242,53463
73836,10563.35011748154,1671625792.567,511,98181,53440
73836,10563.357696171339,1671625792.567,511,98181,53440
73837,10563.365274861138,1671625792.567,511,98054,53444
73837,10563.372853550938,1671625792.567,511,98054,53444
73838,10563.380432240738,1671625792.567,511,98101,53423
73838,10563.388010930537,1671625792.567,511,98101,53423
73839,10563.395589620337,1671625792.567,510,98034,53441
73839,10563.403168310137,1671625792.567,510,98034,53441
73840,10563.410746999936,1671625792.567,508,98074,53447
73840,10563.418325689736,1671625792.567,508,98074,53447
73841,10563.425904379535,1671625792.567,510,98022,53418
73841,10563.433483069335,1671625792.567,510,98022,53418
73842,10563.442788669434,1671625792.673,509,98025,53425
73842,10563.449787620531,1671625792.673,509,98025,53425
73843,10563.456786571629,1671625792.673,509,98065,53426
73843,10563.463785522727,1671625792.673,509,98065,53426
73844,10563.470784473824,1671625792.673,510,98084,53436
73844,10563.477783424922,1671625792.673,510,98084,53436
73845,10563.48478237602,1671625792.673,510,98072,53421
73845,10563.491781327117,1671625792.673,510,98072,53421
73846,10563.498780278214,1671625792.673,511,98067,53420
73846,10563.505779229312,1671625792.673,511,98067,53420
73847,10563.51277818041,1671625792.673,510,98046,53439
73847,10563.519777131507,1671625792.673,510,98046,53439
73848,10563.526776082605,1671625792.768,509,98152,53443
73848,10563.533775033702,1671625792.768,509,98152,53443
73849,10563.5407739848,1671625792.768,509,98103,53437
73849,10563.547772935897,1671625792.768,509,98103,53437
73850,10563.554771886995,1671625792.768,511,98100,53429
73850,10563.561770838092,1671625792.768,511,98100,53429
73851,10563.56876978919,1671625792.768,511,98165,53454
73851,10563.575768740287,1671625792.768,511,98165,53454
73852,10563.612728146165,1671625792.768,510,98115,53444
73852,10563.62023723853,1671625792.768,510,98115,53444
73853,10563.627746330896,1671625792.768,511,98130,53430
73853,10563.635255423262,1671625792.768,511,98130,53430
73854,10563.642764515627,1671625792.853,510,98155,53444
73854,10563.650273607993,1671625792.853,510,98155,53444
73855,10563.657782700358,1671625792.853,509,98185,53446
73855,10563.665291792724,1671625792.853,509,98185,53446
73856,10563.67280088509,1671625792.853,510,98166,53441
73856,10563.680309977455,1671625792.853,510,98166,53441
73857,10563.68781906982,1671625792.853,509,98191,53422
73857,10563.695328162186,1671625792.853,509,98191,53422
73858,10563.702837254552,1671625792.853,509,98181,53431
73858,10563.710346346918,1671625792.853,509,98181,53431
73859,10563.717855439283,1671625792.853,509,98157,53440
73859,10563.725364531649,1671625792.853,509,98157,53440
73860,10563.732873624014,1671625792.948,509,98199,53446
73860,10563.74038271638,1671625792.948,509,98199,53446
73861,10563.747891808745,1671625792.948,510,98172,53426
73861,10563.755400901111,1671625792.948,510,98172,53426
73862,10563.760364643966,1671625792.948,510,98273,53466
73862,10563.76753457803,1671625792.948,510,98273,53466
73863,10563.774704512094,1671625792.948,509,98245,53450
73863,10563.781874446158,1671625792.948,509,98245,53450
73864,10563.789044380223,1671625792.948,509,98297,53451
73864,10563.796214314287,1671625792.948,509,98297,53451
73865,10563.803384248351,1671625792.948,510,98312,53465
73865,10563.810554182415,1671625792.948,510,98312,53465
73866,10563.81772411648,1671625793.034,509,98338,53471
73866,10563.824894050544,1671625793.034,509,98338,53471
73867,10563.832063984608,1671625793.034,509,98374,53469
73867,10563.839233918672,1671625793.034,509,98374,53469
73868,10563.846403852736,1671625793.034,510,98339,53483
73868,10563.8535737868,1671625793.034,510,98339,53483
73869,10563.860743720865,1671625793.034,510,98422,53487
73869,10563.867913654929,1671625793.034,510,98422,53487
73870,10563.875083588993,1671625793.034,510,98422,53485
73870,10563.882253523057,1671625793.034,510,98422,53485
73871,10563.889423457122,1671625793.034,512,98473,53490
73871,10563.896593391186,1671625793.034,512,98473,53490
73872,10563.909088924529,1671625793.129,509,98480,53520
73872,10563.915818326666,1671625793.129,509,98480,53520
73873,10563.922547728804,1671625793.129,510,98555,53528
73873,10563.929277130941,1671625793.129,510,98555,53528
73874,10563.936006533078,1671625793.129,510,98520,53521
73874,10563.942735935216,1671625793.129,510,98520,53521
73875,10563.949465337353,1671625793.129,510,98568,53524
73875,10563.95619473949,1671625793.129,510,98568,53524
73876,10563.962924141628,1671625793.129,510,98580,53525
73876,10563.969653543765,1671625793.129,510,98580,53525
73877,10563.976382945903,1671625793.129,510,98506,53488
73877,10563.98311234804,1671625793.129,510,98506,53488
73878,10563.989841750177,1671625793.228,510,98353,53493
73878,10563.996571152315,1671625793.228,510,98353,53493
73879,10564.003300554452,1671625793.228,509,98285,53480
73879,10564.01002995659,1671625793.228,509,98285,53480
73880,10564.016759358727,1671625793.228,509,98113,53426
73880,10564.023488760864,1671625793.228,509,98113,53426
73881,10564.030218163001,1671625793.228,509,98130,53447
73881,10564.036947565139,1671625793.228,509,98130,53447
73882,10564.071480720037,1671625793.228,509,98031,53423
73882,10564.079180684976,1671625793.228,509,98031,53423
73883,10564.086880649915,1671625793.228,509,98025,53419
73883,10564.094580614854,1671625793.228,509,98025,53419
73884,10564.102280579793,1671625793.323,510,97997,53395
73884,10564.109980544732,1671625793.323,510,97997,53395
73885,10564.117680509671,1671625793.323,511,97944,53393
73885,10564.12538047461,1671625793.323,511,97944,53393
73886,10564.13308043955,1671625793.323,509,98015,53404
73886,10564.140780404488,1671625793.323,509,98015,53404
73887,10564.148480369427,1671625793.323,510,97930,53403
73887,10564.156180334367,1671625793.323,510,97930,53403
73888,10564.163880299306,1671625793.323,510,97960,53410
73888,10564.171580264245,1671625793.323,510,97960,53410
73889,10564.179280229184,1671625793.323,510,98051,53403
73889,10564.186980194123,1671625793.323,510,98051,53403
73890,10564.194680159062,1671625793.407,508,97933,53384
73890,10564.202380124001,1671625793.407,508,97933,53384
73891,10564.21008008894,1671625793.407,509,97984,53418
73891,10564.21778005388,1671625793.407,509,97984,53418
73892,10564.226282596188,1671625793.407,510,98021,53387
73892,10564.233122542199,1671625793.407,510,98021,53387
73893,10564.23996248821,1671625793.407,510,97979,53399
73893,10564.24680243422,1671625793.407,510,97979,53399
73894,10564.25364238023,1671625793.407,509,98051,53398
73894,10564.26048232624,1671625793.407,509,98051,53398
73895,10564.267322272251,1671625793.407,509,98060,53421
73895,10564.274162218262,1671625793.407,509,98060,53421
73896,10564.281002164273,1671625793.504,511,98045,53399
73896,10564.287842110283,1671625793.504,511,98045,53399
73897,10564.294682056294,1671625793.504,507,98060,53409
73897,10564.301522002304,1671625793.504,507,98060,53409
73898,10564.308361948315,1671625793.504,509,98080,53405
73898,10564.315201894326,1671625793.504,509,98080,53405
73899,10564.322041840336,1671625793.504,510,98078,53406
73899,10564.328881786347,1671625793.504,510,98078,53406
73900,10564.335721732357,1671625793.504,509,97997,53378
73900,10564.342561678368,1671625793.504,509,97997,53378
73901,10564.349401624379,1671625793.504,510,98032,53393
73901,10564.35624157039,1671625793.504,510,98032,53393
73902,10564.380509509883,1671625793.601,510,98123,53394
73902,10564.388082174712,1671625793.601,510,98123,53394
73903,10564.39565483954,1671625793.601,510,98031,53399
73903,10564.403227504368,1671625793.601,510,98031,53399
73904,10564.410800169197,1671625793.601,510,98082,53405
73904,10564.418372834025,1671625793.601,510,98082,53405
73905,10564.425945498853,1671625793.601,509,98101,53395
73905,10564.433518163682,1671625793.601,509,98101,53395
73906,10564.44109082851,1671625793.601,509,98137,53410
73906,10564.448663493338,1671625793.601,509,98137,53410
73907,10564.456236158167,1671625793.601,510,98145,53430
73907,10564.463808822995,1671625793.601,510,98145,53430
73908,10564.471381487823,1671625793.744,510,98167,53413
73908,10564.478954152652,1671625793.744,510,98167,53413
73909,10564.48652681748,1671625793.744,509,98209,53435
73909,10564.494099482308,1671625793.744,509,98209,53435
73910,10564.501672147137,1671625793.744,510,98206,53415
73910,10564.509244811965,1671625793.744,510,98206,53415
73911,10564.516817476793,1671625793.744,509,98264,53432
73911,10564.524390141622,1671625793.744,509,98264,53432
73912,10564.57653700587,1671625793.744,510,98266,53426
73912,10564.587499301215,1671625793.744,510,98266,53426
73913,10564.598461596559,1671625793.744,510,98267,53443
73913,10564.609423891903,1671625793.744,510,98267,53443
73914,10564.620386187247,1671625793.792,508,98337,53430
73914,10564.631348482591,1671625793.792,508,98337,53430
73915,10564.642310777936,1671625793.792,510,98352,53465
73915,10564.65327307328,1671625793.792,510,98352,53465
73916,10564.664235368624,1671625793.792,510,98313,53477
73916,10564.675197663968,1671625793.792,510,98313,53477
73917,10564.686159959312,1671625793.792,510,98372,53452
73917,10564.697122254656,1671625793.792,510,98372,53452
73918,10564.70808455,1671625793.792,510,98357,53481
73918,10564.719046845345,1671625793.792,510,98357,53481
73919,10564.730009140689,1671625793.792,509,98439,53485
73919,10564.740971436033,1671625793.792,509,98439,53485
73920,10564.751933731377,1671625793.878,511,98451,53482
73920,10564.762896026721,1671625793.878,511,98451,53482
73921,10564.773858322065,1671625793.878,508,98515,53475
73921,10564.78482061741,1671625793.878,508,98515,53475
73922,10564.69458207796,1671625793.878,508,98494,53487
73922,10564.700452144461,1671625793.878,508,98494,53487
73923,10564.706322210963,1671625793.878,509,98426,53486
73923,10564.712192277464,1671625793.878,509,98426,53486
73924,10564.718062343965,1671625793.878,509,98334,53466
73924,10564.723932410467,1671625793.878,509,98334,53466
73925,10564.729802476968,1671625793.878,510,98201,53424
73925,10564.73567254347,1671625793.878,510,98201,53424
73926,10564.74154260997,1671625793.969,509,98069,53417
73926,10564.747412676472,1671625793.969,509,98069,53417
73927,10564.753282742973,1671625793.969,509,98039,53398
73927,10564.759152809474,1671625793.969,509,98039,53398
73928,10564.765022875976,1671625793.969,509,97937,53389
73928,10564.770892942477,1671625793.969,509,97937,53389
73929,10564.776763008978,1671625793.969,509,97961,53384
73929,10564.78263307548,1671625793.969,509,97961,53384
73930,10564.788503141981,1671625793.969,508,97904,53365
73930,10564.794373208482,1671625793.969,508,97904,53365
73931,10564.800243274984,1671625793.969,510,97922,53370
73931,10564.806113341485,1671625793.969,510,97922,53370
73932,10564.844831766512,1671625794.073,509,97881,53352
73932,10564.85191886164,1671625794.073,509,97881,53352
73933,10564.859005956767,1671625794.073,510,97931,53353
73933,10564.866093051894,1671625794.073,510,97931,53353
73934,10564.873180147022,1671625794.073,511,97893,53370
73934,10564.88026724215,1671625794.073,511,97893,53370
73935,10564.887354337277,1671625794.073,511,97917,53358
73935,10564.894441432405,1671625794.073,511,97917,53358
73936,10564.901528527533,1671625794.073,509,97895,53367
73936,10564.90861562266,1671625794.073,509,97895,53367
73937,10564.915702717788,1671625794.073,510,97858,53339
73937,10564.922789812916,1671625794.073,510,97858,53339
73938,10564.929876908043,1671625794.158,509,97942,53374
73938,10564.936964003171,1671625794.158,509,97942,53374
73939,10564.944051098299,1671625794.158,510,97936,53367
73939,10564.951138193426,1671625794.158,510,97936,53367
73940,10564.958225288554,1671625794.158,510,97986,53358
73940,10564.965312383682,1671625794.158,510,97986,53358
73941,10564.97239947881,1671625794.158,510,97959,53375
73941,10564.979486573937,1671625794.158,510,97959,53375
73942,10565.005086891977,1671625794.158,510,98034,53380
73942,10565.011834567162,1671625794.158,510,98034,53380
73943,10565.018582242346,1671625794.158,510,97977,53349
73943,10565.025329917531,1671625794.158,510,97977,53349
73944,10565.032077592716,1671625794.252,510,97911,53347
73944,10565.0388252679,1671625794.252,510,97911,53347
73945,10565.045572943085,1671625794.252,511,97964,53347
73945,10565.05232061827,1671625794.252,511,97964,53347
73946,10565.059068293454,1671625794.252,509,97973,53342
73946,10565.065815968639,1671625794.252,509,97973,53342
73947,10565.072563643824,1671625794.252,510,97989,53340
73947,10565.079311319008,1671625794.252,510,97989,53340
73948,10565.086058994193,1671625794.252,511,97964,53346
73948,10565.092806669378,1671625794.252,511,97964,53346
73949,10565.099554344562,1671625794.252,511,97986,53337
73949,10565.106302019747,1671625794.252,511,97986,53337
73950,10565.113049694932,1671625794.352,510,98015,53350
73950,10565.119797370116,1671625794.352,510,98015,53350
73951,10565.126545045301,1671625794.352,509,97987,53344
73951,10565.133292720486,1671625794.352,509,97987,53344
73952,10565.16198854281,1671625794.352,508,98046,53357
73952,10565.169668388924,1671625794.352,508,98046,53357
73953,10565.177348235038,1671625794.352,510,98011,53360
73953,10565.185028081152,1671625794.352,510,98011,53360
73954,10565.192707927266,1671625794.352,510,98073,53372
73954,10565.20038777338,1671625794.352,510,98073,53372
73955,10565.208067619495,1671625794.352,509,98083,53364
73955,10565.215747465609,1671625794.352,509,98083,53364
73956,10565.223427311723,1671625794.452,511,98084,53357
73956,10565.231107157837,1671625794.452,511,98084,53357
73957,10565.238787003951,1671625794.452,509,98124,53379
73957,10565.246466850065,1671625794.452,509,98124,53379
73958,10565.25414669618,1671625794.452,510,98124,53383
73958,10565.261826542293,1671625794.452,510,98124,53383
73959,10565.269506388408,1671625794.452,509,98209,53394
73959,10565.277186234522,1671625794.452,509,98209,53394
73960,10565.284866080636,1671625794.452,511,98252,53389
73960,10565.29254592675,1671625794.452,511,98252,53389
73961,10565.300225772864,1671625794.452,510,98195,53407
73961,10565.307905618978,1671625794.452,510,98195,53407
73962,10565.328442070668,1671625794.541,509,98265,53418
73962,10565.336216243913,1671625794.541,509,98265,53418
73963,10565.34399041716,1671625794.541,509,98302,53402
73963,10565.351764590405,1671625794.541,509,98302,53402
73964,10565.35953876365,1671625794.541,510,98345,53414
73964,10565.367312936896,1671625794.541,510,98345,53414
73965,10565.375087110142,1671625794.541,511,98336,53421
73965,10565.382861283388,1671625794.541,511,98336,53421
73966,10565.390635456633,1671625794.541,511,98319,53415
73966,10565.39840962988,1671625794.541,511,98319,53415
73967,10565.406183803125,1671625794.541,511,98422,53431
73967,10565.41395797637,1671625794.541,511,98422,53431
73968,10565.421732149616,1671625794.627,511,98385,53446
73968,10565.429506322862,1671625794.627,511,98385,53446
73969,10565.437280496108,1671625794.627,509,98384,53450
73969,10565.445054669353,1671625794.627,509,98384,53450
73970,10565.452828842599,1671625794.627,507,98307,53440
73970,10565.460603015845,1671625794.627,507,98307,53440
73971,10565.46837718909,1671625794.627,509,98194,53398
73971,10565.476151362336,1671625794.627,509,98194,53398
73972,10565.473341080662,1671625794.627,510,98123,53393
73972,10565.480060186494,1671625794.627,510,98123,53393
73973,10565.486779292325,1671625794.627,509,98043,53358
73973,10565.493498398157,1671625794.627,509,98043,53358
73974,10565.500217503988,1671625794.727,509,97931,53344
73974,10565.50693660982,1671625794.727,509,97931,53344
73975,10565.513655715651,1671625794.727,510,97823,53331
73975,10565.520374821483,1671625794.727,510,97823,53331
73976,10565.527093927314,1671625794.727,510,97824,53309
73976,10565.533813033146,1671625794.727,510,97824,53309
73977,10565.540532138977,1671625794.727,510,97765,53316
73977,10565.547251244809,1671625794.727,510,97765,53316
73978,10565.55397035064,1671625794.727,508,97804,53295
73978,10565.560689456472,1671625794.727,508,97804,53295
73979,10565.567408562303,1671625794.727,508,97774,53305
73979,10565.574127668135,1671625794.727,508,97774,53305
73980,10565.580846773966,1671625794.817,509,97791,53305
73980,10565.587565879798,1671625794.817,509,97791,53305
73981,10565.59428498563,1671625794.817,509,97751,53307
73981,10565.60100409146,1671625794.817,509,97751,53307
73982,10565.633198376,1671625794.817,510,97751,53299
73982,10565.640451678684,1671625794.817,510,97751,53299
73983,10565.64770498137,1671625794.817,510,97760,53283
73983,10565.654958284054,1671625794.817,510,97760,53283
73984,10565.66221158674,1671625794.817,510,97725,53305
73984,10565.669464889424,1671625794.817,510,97725,53305
73985,10565.67671819211,1671625794.817,510,97765,53286
73985,10565.683971494795,1671625794.817,510,97765,53286
73986,10565.69122479748,1671625794.903,509,97784,53298
73986,10565.698478100165,1671625794.903,509,97784,53298
73987,10565.70573140285,1671625794.903,509,97805,53283
73987,10565.712984705535,1671625794.903,509,97805,53283
73988,10565.72023800822,1671625794.903,510,97817,53315
73988,10565.727491310905,1671625794.903,510,97817,53315
73989,10565.73474461359,1671625794.903,511,97870,53308
73989,10565.741997916275,1671625794.903,511,97870,53308
73990,10565.74925121896,1671625794.903,511,97851,53293
73990,10565.756504521645,1671625794.903,511,97851,53293
73991,10565.76375782433,1671625794.903,511,97836,53287
73991,10565.771011127015,1671625794.903,511,97836,53287
73992,10565.778728435065,1671625795.018,510,97797,53287
73992,10565.785493334082,1671625795.018,510,97797,53287
73993,10565.7922582331,1671625795.018,510,97796,53273
73993,10565.799023132116,1671625795.018,510,97796,53273
73994,10565.805788031133,1671625795.018,510,97837,53281
73994,10565.81255293015,1671625795.018,510,97837,53281
73995,10565.819317829168,1671625795.018,510,97837,53264
73995,10565.826082728185,1671625795.018,510,97837,53264
73996,10565.832847627202,1671625795.018,511,97848,53278
73996,10565.839612526219,1671625795.018,511,97848,53278
73997,10565.846377425236,1671625795.018,510,97803,53298
73997,10565.853142324253,1671625795.018,510,97803,53298
73998,10565.85990722327,1671625795.106,511,97881,53280
73998,10565.866672122287,1671625795.106,511,97881,53280
73999,10565.873437021304,1671625795.106,511,97876,53297
73999,10565.880201920321,1671625795.106,511,97876,53297
74000,10565.886966819338,1671625795.106,511,97909,53288
74000,10565.893731718355,1671625795.106,511,97909,53288
74001,10565.900496617372,1671625795.106,510,97931,53311
74001,10565.90726151639,1671625795.106,510,97931,53311
74002,10565.952123970106,1671625795.106,510,97962,53292
74002,10565.959085419274,1671625795.106,510,97962,53292
74003,10565.966046868441,1671625795.106,511,97973,53299
74003,10565.97300831761,1671625795.106,511,97973,53299
74004,10565.979969766777,1671625795.194,510,98009,53317
74004,10565.986931215944,1671625795.194,510,98009,53317
74005,10565.993892665112,1671625795.194,510,98023,53309
74005,10566.00085411428,1671625795.194,510,98023,53309
74006,10566.007815563447,1671625795.194,511,97989,53329
74006,10566.014777012615,1671625795.194,511,97989,53329
74007,10566.021738461783,1671625795.194,510,97988,53316
74007,10566.02869991095,1671625795.194,510,97988,53316
74008,10566.035661360118,1671625795.194,511,98057,53319
74008,10566.042622809286,1671625795.194,511,98057,53319
74009,10566.049584258453,1671625795.194,509,98106,53361
74009,10566.05654570762,1671625795.194,509,98106,53361
74010,10566.063507156789,1671625795.285,510,98150,53353
74010,10566.070468605956,1671625795.285,510,98150,53353
74011,10566.077430055124,1671625795.285,510,98141,53335
74011,10566.084391504291,1671625795.285,510,98141,53335
74012,10566.100207236555,1671625795.285,510,98218,53350
74012,10566.107231884964,1671625795.285,510,98218,53350
74013,10566.114256533372,1671625795.285,511,98175,53363
74013,10566.12128118178,1671625795.285,511,98175,53363
74014,10566.128305830189,1671625795.285,510,98140,53356
74014,10566.135330478597,1671625795.285,510,98140,53356
74015,10566.142355127005,1671625795.285,510,98116,53335
74015,10566.149379775414,1671625795.285,510,98116,53335
74016,10566.156404423822,1671625795.38,511,97972,53327
74016,10566.16342907223,1671625795.38,511,97972,53327
74017,10566.170453720639,1671625795.38,510,97872,53319
74017,10566.177478369047,1671625795.38,510,97872,53319
74018,10566.184503017455,1671625795.38,510,97788,53283
74018,10566.191527665864,1671625795.38,510,97788,53283
74019,10566.198552314272,1671625795.38,509,97725,53259
74019,10566.20557696268,1671625795.38,509,97725,53259
74020,10566.212601611089,1671625795.38,509,97608,53270
74020,10566.219626259497,1671625795.38,509,97608,53270
74021,10566.226650907905,1671625795.38,512,97680,53240
74021,10566.233675556314,1671625795.38,512,97680,53240
74022,10566.256051936749,1671625795.489,509,97593,53224
74022,10566.263474877709,1671625795.489,509,97593,53224
74023,10566.27089781867,1671625795.489,510,97616,53231
74023,10566.27832075963,1671625795.489,510,97616,53231
74024,10566.28574370059,1671625795.489,510,97588,53233
74024,10566.29316664155,1671625795.489,510,97588,53233
74025,10566.30058958251,1671625795.489,510,97596,53237
74025,10566.30801252347,1671625795.489,510,97596,53237
74026,10566.31543546443,1671625795.489,510,97571,53233
74026,10566.32285840539,1671625795.489,510,97571,53233
74027,10566.33028134635,1671625795.489,510,97605,53231
74027,10566.33770428731,1671625795.489,510,97605,53231
74028,10566.345127228271,1671625795.583,510,97592,53233
74028,10566.352550169231,1671625795.583,510,97592,53233
74029,10566.359973110191,1671625795.583,509,97636,53236
74029,10566.367396051151,1671625795.583,509,97636,53236
74030,10566.374818992112,1671625795.583,510,97661,53230
74030,10566.382241933072,1671625795.583,510,97661,53230
74031,10566.389664874032,1671625795.583,510,97620,53221
74031,10566.397087814992,1671625795.583,510,97620,53221
74032,10566.428002289584,1671625795.583,511,97654,53211
74032,10566.435428141713,1671625795.583,511,97654,53211
74033,10566.442853993842,1671625795.583,510,97626,53222
74033,10566.45027984597,1671625795.583,510,97626,53222
74034,10566.4577056981,1671625795.665,509,97661,53220
74034,10566.465131550229,1671625795.665,509,97661,53220
74035,10566.472557402358,1671625795.665,509,97702,53217
74035,10566.479983254487,1671625795.665,509,97702,53217
74036,10566.487409106616,1671625795.665,510,97573,53217
74036,10566.494834958745,1671625795.665,510,97573,53217
74037,10566.502260810874,1671625795.665,511,97699,53208
74037,10566.509686663003,1671625795.665,511,97699,53208
74038,10566.517112515132,1671625795.665,510,97678,53225
74038,10566.52453836726,1671625795.665,510,97678,53225
74039,10566.53196421939,1671625795.665,511,97681,53217
74039,10566.539390071519,1671625795.665,511,97681,53217
74040,10566.546815923648,1671625795.752,510,97687,53219
74040,10566.554241775777,1671625795.752,510,97687,53219
74041,10566.561667627906,1671625795.752,509,97695,53207
74041,10566.569093480035,1671625795.752,509,97695,53207
74042,10566.56884604855,1671625795.752,509,97697,53216
74042,10566.575540525217,1671625795.752,509,97697,53216
74043,10566.582235001883,1671625795.752,510,97687,53232
74043,10566.588929478548,1671625795.752,510,97687,53232
74044,10566.595623955214,1671625795.752,510,97732,53233
74044,10566.60231843188,1671625795.752,510,97732,53233
74045,10566.609012908546,1671625795.752,509,97729,53233
74045,10566.615707385212,1671625795.752,509,97729,53233
74046,10566.622401861878,1671625795.851,510,97726,53229
74046,10566.629096338544,1671625795.851,510,97726,53229
74047,10566.63579081521,1671625795.851,509,97785,53230
74047,10566.642485291875,1671625795.851,509,97785,53230
74048,10566.649179768541,1671625795.851,509,97744,53221
74048,10566.655874245207,1671625795.851,509,97744,53221
74049,10566.662568721873,1671625795.851,509,97820,53242
74049,10566.669263198539,1671625795.851,509,97820,53242
74050,10566.675957675205,1671625795.851,509,97798,53256
74050,10566.68265215187,1671625795.851,509,97798,53256
74051,10566.689346628536,1671625795.851,508,97841,53236
74051,10566.696041105202,1671625795.851,508,97841,53236
74052,10566.727371011146,1671625795.946,510,97887,53275
74052,10566.735081809325,1671625795.946,510,97887,53275
74053,10566.742792607505,1671625795.946,510,97902,53261
74053,10566.750503405685,1671625795.946,510,97902,53261
74054,10566.758214203865,1671625795.946,511,97886,53252
74054,10566.765925002044,1671625795.946,511,97886,53252
74055,10566.773635800224,1671625795.946,510,97922,53260
74055,10566.781346598404,1671625795.946,510,97922,53260
74056,10566.789057396583,1671625795.946,511,97927,53259
74056,10566.796768194763,1671625795.946,511,97927,53259
74057,10566.804478992943,1671625795.946,510,97855,53264
74057,10566.812189791122,1671625795.946,510,97855,53264
74058,10566.819900589302,1671625796.033,510,97819,53264
74058,10566.827611387482,1671625796.033,510,97819,53264
74059,10566.835322185661,1671625796.033,509,97716,53225
74059,10566.843032983841,1671625796.033,509,97716,53225
74060,10566.85074378202,1671625796.033,510,97615,53225
74060,10566.8584545802,1671625796.033,510,97615,53225
74061,10566.86616537838,1671625796.033,509,97535,53171
74061,10566.87387617656,1671625796.033,509,97535,53171
74062,10566.879269550529,1671625796.033,509,97485,53185
74062,10566.886070923025,1671625796.033,509,97485,53185
74063,10566.89287229552,1671625796.033,509,97459,53181
74063,10566.899673668016,1671625796.033,509,97459,53181
74064,10566.906475040512,1671625796.122,510,97449,53178
74064,10566.913276413008,1671625796.122,510,97449,53178
74065,10566.920077785504,1671625796.122,509,97424,53180
74065,10566.926879158,1671625796.122,509,97424,53180
74066,10566.933680530496,1671625796.122,509,97415,53146
74066,10566.940481902991,1671625796.122,509,97415,53146
74067,10566.947283275487,1671625796.122,509,97435,53152
74067,10566.954084647983,1671625796.122,509,97435,53152
74068,10566.960886020479,1671625796.122,509,97418,53140
74068,10566.967687392975,1671625796.122,509,97418,53140
74069,10566.97448876547,1671625796.122,510,97408,53151
74069,10566.981290137966,1671625796.122,510,97408,53151
74070,10566.988091510462,1671625796.224,510,97407,53143
74070,10566.994892882958,1671625796.224,510,97407,53143
74071,10567.001694255454,1671625796.224,510,97464,53171
74071,10567.00849562795,1671625796.224,510,97464,53171
74072,10567.032435684503,1671625796.224,510,97439,53135
74072,10567.040124677573,1671625796.224,510,97439,53135
74073,10567.047813670642,1671625796.224,510,97486,53166
74073,10567.055502663712,1671625796.224,510,97486,53166
74074,10567.063191656782,1671625796.224,510,97486,53150
74074,10567.070880649851,1671625796.224,510,97486,53150
74075,10567.078569642921,1671625796.224,509,97502,53139
74075,10567.08625863599,1671625796.224,509,97502,53139
74076,10567.09394762906,1671625796.316,508,97527,53168
74076,10567.10163662213,1671625796.316,508,97527,53168
74077,10567.1093256152,1671625796.316,509,97446,53144
74077,10567.11701460827,1671625796.316,509,97446,53144
74078,10567.12470360134,1671625796.316,510,97477,53148
74078,10567.132392594409,1671625796.316,510,97477,53148
74079,10567.140081587479,1671625796.316,510,97508,53139
74079,10567.147770580548,1671625796.316,510,97508,53139
74080,10567.155459573618,1671625796.316,510,97411,53143
74080,10567.163148566688,1671625796.316,510,97411,53143
74081,10567.170837559757,1671625796.316,511,97471,53152
74081,10567.178526552827,1671625796.316,511,97471,53152
74082,10567.191444973194,1671625796.411,510,97487,53135
74082,10567.19859034313,1671625796.411,510,97487,53135
74083,10567.205735713067,1671625796.411,509,97536,53142
74083,10567.212881083004,1671625796.411,509,97536,53142
74084,10567.22002645294,1671625796.411,510,97509,53146
74084,10567.227171822877,1671625796.411,510,97509,53146
74085,10567.234317192813,1671625796.411,509,97543,53140
74085,10567.24146256275,1671625796.411,509,97543,53140
74086,10567.248607932686,1671625796.411,510,97543,53162
74086,10567.255753302623,1671625796.411,510,97543,53162
74087,10567.26289867256,1671625796.411,509,97564,53162
74087,10567.270044042496,1671625796.411,509,97564,53162
74088,10567.277189412433,1671625796.499,510,97574,53170
74088,10567.28433478237,1671625796.499,510,97574,53170
74089,10567.291480152306,1671625796.499,509,97538,53188
74089,10567.298625522242,1671625796.499,509,97538,53188
74090,10567.305770892179,1671625796.499,511,97585,53156
74090,10567.312916262115,1671625796.499,511,97585,53156
74091,10567.320061632052,1671625796.499,509,97645,53181
74091,10567.327207001988,1671625796.499,509,97645,53181
74092,10567.34500486852,1671625796.499,509,97656,53174
74092,10567.351908470573,1671625796.499,509,97656,53174
74093,10567.358812072625,1671625796.499,511,97641,53197
74093,10567.365715674678,1671625796.499,511,97641,53197
74094,10567.37261927673,1671625796.605,511,97681,53197
74094,10567.379522878782,1671625796.605,511,97681,53197
74095,10567.386426480834,1671625796.605,510,97731,53178
74095,10567.393330082887,1671625796.605,510,97731,53178
74096,10567.400233684939,1671625796.605,509,97761,53183
74096,10567.407137286991,1671625796.605,509,97761,53183
74097,10567.414040889043,1671625796.605,510,97775,53205
74097,10567.420944491096,1671625796.605,510,97775,53205
74098,10567.427848093148,1671625796.605,509,97747,53226
74098,10567.4347516952,1671625796.605,509,97747,53226
74099,10567.441655297253,1671625796.605,508,97812,53218
74099,10567.448558899305,1671625796.605,508,97812,53218
74100,10567.455462501357,1671625796.692,510,97832,53239
74100,10567.46236610341,1671625796.692,510,97832,53239
74101,10567.469269705462,1671625796.692,510,97845,53242
74101,10567.476173307514,1671625796.692,510,97845,53242
74102,10567.51041211755,1671625796.692,511,97739,53210
74102,10567.517632882113,1671625796.692,511,97739,53210
74103,10567.524853646675,1671625796.692,511,97632,53205
74103,10567.532074411238,1671625796.692,511,97632,53205
74104,10567.5392951758,1671625796.692,510,97539,53160
74104,10567.546515940363,1671625796.692,510,97539,53160
74105,10567.553736704926,1671625796.692,510,97473,53168
74105,10567.560957469488,1671625796.692,510,97473,53168
74106,10567.56817823405,1671625796.785,509,97384,53142
74106,10567.575398998613,1671625796.785,509,97384,53142
74107,10567.582619763176,1671625796.785,509,97298,53127
74107,10567.589840527738,1671625796.785,509,97298,53127
74108,10567.597061292301,1671625796.785,511,97198,53132
74108,10567.604282056864,1671625796.785,511,97198,53132
74109,10567.611502821426,1671625796.785,509,97282,53104
74109,10567.618723585989,1671625796.785,509,97282,53104
74110,10567.625944350551,1671625796.785,509,97248,53105
74110,10567.633165115114,1671625796.785,509,97248,53105
74111,10567.640385879677,1671625796.785,510,97272,53100
74111,10567.64760664424,1671625796.785,510,97272,53100
74112,10567.660712592557,1671625796.878,510,97258,53094
74112,10567.667963583564,1671625796.878,510,97258,53094
74113,10567.675214574572,1671625796.878,510,97174,53098
74113,10567.68246556558,1671625796.878,510,97174,53098
74114,10567.689716556588,1671625796.878,511,97203,53068
74114,10567.696967547596,1671625796.878,511,97203,53068
74115,10567.704218538604,1671625796.878,511,97200,53078
74115,10567.711469529611,1671625796.878,511,97200,53078
74116,10567.71872052062,1671625796.878,508,97223,53090
74116,10567.725971511627,1671625796.878,508,97223,53090
74117,10567.733222502635,1671625796.878,510,97233,53072
74117,10567.740473493643,1671625796.878,510,97233,53072
74118,10567.74772448465,1671625796.977,510,97258,53096
74118,10567.754975475658,1671625796.977,510,97258,53096
74119,10567.762226466666,1671625796.977,510,97243,53083
74119,10567.769477457674,1671625796.977,510,97243,53083
74120,10567.776728448682,1671625796.977,510,97246,53071
74120,10567.78397943969,1671625796.977,510,97246,53071
74121,10567.791230430697,1671625796.977,511,97236,53070
74121,10567.798481421705,1671625796.977,511,97236,53070
74122,10567.820292166249,1671625796.977,510,97260,53079
74122,10567.827985318427,1671625796.977,510,97260,53079
74123,10567.835678470605,1671625796.977,509,97217,53085
74123,10567.843371622783,1671625796.977,509,97217,53085
74124,10567.85106477496,1671625797.067,510,97216,53062
74124,10567.858757927139,1671625797.067,510,97216,53062
74125,10567.866451079317,1671625797.067,508,97250,53081
74125,10567.874144231495,1671625797.067,508,97250,53081
74126,10567.881837383673,1671625797.067,510,97188,53064
74126,10567.889530535851,1671625797.067,510,97188,53064
74127,10567.897223688029,1671625797.067,511,97254,53052
74127,10567.904916840207,1671625797.067,511,97254,53052
74128,10567.912609992385,1671625797.067,510,97226,53070
74128,10567.920303144563,1671625797.067,510,97226,53070
74129,10567.927996296741,1671625797.067,509,97299,53047
74129,10567.93568944892,1671625797.067,509,97299,53047
74130,10567.943382601097,1671625797.157,510,97266,53063
74130,10567.951075753275,1671625797.157,510,97266,53063
74131,10567.958768905453,1671625797.157,510,97280,53079
74131,10567.966462057631,1671625797.157,510,97280,53079
74132,10567.97266931307,1671625797.157,509,97234,53073
74132,10567.979742842774,1671625797.157,509,97234,53073
74133,10567.986816372477,1671625797.157,510,97316,53088
74133,10567.99388990218,1671625797.157,510,97316,53088
74134,10568.000963431883,1671625797.157,511,97278,53081
74134,10568.008036961586,1671625797.157,511,97278,53081
74135,10568.01511049129,1671625797.157,510,97329,53087
74135,10568.022184020992,1671625797.157,510,97329,53087
74136,10568.029257550696,1671625797.255,511,97326,53097
74136,10568.036331080399,1671625797.255,511,97326,53097
74137,10568.043404610102,1671625797.255,511,97327,53117
74137,10568.050478139805,1671625797.255,511,97327,53117
74138,10568.057551669508,1671625797.255,509,97349,53120
74138,10568.064625199211,1671625797.255,509,97349,53120
74139,10568.071698728914,1671625797.255,510,97371,53113
74139,10568.078772258617,1671625797.255,510,97371,53113
74140,10568.08584578832,1671625797.255,509,97368,53108
74140,10568.092919318024,1671625797.255,509,97368,53108
74141,10568.099992847727,1671625797.255,510,97413,53133
74141,10568.10706637743,1671625797.255,510,97413,53133
74142,10568.131454452776,1671625797.355,509,97459,53129
74142,10568.139071527334,1671625797.355,509,97459,53129
74143,10568.146688601892,1671625797.355,511,97461,53139
74143,10568.15430567645,1671625797.355,511,97461,53139
74144,10568.161922751007,1671625797.355,510,97485,53135
74144,10568.169539825565,1671625797.355,510,97485,53135
74145,10568.177156900123,1671625797.355,509,97571,53151
74145,10568.18477397468,1671625797.355,509,97571,53151
74146,10568.192391049239,1671625797.355,510,97491,53143
74146,10568.200008123797,1671625797.355,510,97491,53143
74147,10568.207625198354,1671625797.355,511,97551,53150
74147,10568.215242272912,1671625797.355,511,97551,53150
74148,10568.22285934747,1671625797.444,508,97485,53159
74148,10568.230476422028,1671625797.444,508,97485,53159
74149,10568.238093496586,1671625797.444,509,97365,53134
74149,10568.245710571144,1671625797.444,509,97365,53134
74150,10568.253327645702,1671625797.444,509,97322,53112
74150,10568.26094472026,1671625797.444,509,97322,53112
74151,10568.268561794817,1671625797.444,509,97213,53097
74151,10568.276178869375,1671625797.444,509,97213,53097
74152,10568.290086828367,1671625797.444,510,97169,53086
74152,10568.297140402443,1671625797.444,510,97169,53086
74153,10568.304193976519,1671625797.444,510,97071,53061
74153,10568.311247550595,1671625797.444,510,97071,53061
74154,10568.318301124671,1671625797.541,509,97062,53056
74154,10568.325354698747,1671625797.541,509,97062,53056
74155,10568.332408272823,1671625797.541,509,96919,53034
74155,10568.3394618469,1671625797.541,509,96919,53034
74156,10568.346515420975,1671625797.541,510,96977,53035
74156,10568.353568995051,1671625797.541,510,96977,53035
74157,10568.360622569127,1671625797.541,510,96981,53012
74157,10568.367676143203,1671625797.541,510,96981,53012
74158,10568.37472971728,1671625797.541,510,96946,53034
74158,10568.381783291356,1671625797.541,510,96946,53034
74159,10568.388836865432,1671625797.541,510,96902,53025
74159,10568.395890439508,1671625797.541,510,96902,53025
74160,10568.402944013584,1671625797.629,509,96921,52994
74160,10568.40999758766,1671625797.629,509,96921,52994
74161,10568.417051161736,1671625797.629,510,96899,53013
74161,10568.424104735812,1671625797.629,510,96899,53013
74162,10568.445935752266,1671625797.629,509,96862,53015
74162,10568.452992577331,1671625797.629,509,96862,53015
74163,10568.460049402396,1671625797.629,510,96971,53000
74163,10568.467106227461,1671625797.629,510,96971,53000
74164,10568.474163052526,1671625797.629,509,96906,52997
74164,10568.48121987759,1671625797.629,509,96906,52997
74165,10568.488276702656,1671625797.629,509,96907,53001
74165,10568.49533352772,1671625797.629,509,96907,53001
74166,10568.502390352785,1671625797.728,511,96908,52989
74166,10568.50944717785,1671625797.728,511,96908,52989
74167,10568.516504002915,1671625797.728,510,96857,52986
74167,10568.52356082798,1671625797.728,510,96857,52986
74168,10568.530617653045,1671625797.728,509,96898,52996
74168,10568.53767447811,1671625797.728,509,96898,52996
74169,10568.544731303175,1671625797.728,510,96917,52995
74169,10568.55178812824,1671625797.728,510,96917,52995
74170,10568.558844953304,1671625797.728,511,96837,52978
74170,10568.56590177837,1671625797.728,511,96837,52978
74171,10568.572958603434,1671625797.728,510,96925,52962
74171,10568.580015428499,1671625797.728,510,96925,52962
74172,10568.604551473374,1671625797.821,509,96855,52994
74172,10568.612306158879,1671625797.821,509,96855,52994
74173,10568.620060844383,1671625797.821,510,96926,52997
74173,10568.627815529888,1671625797.821,510,96926,52997
74174,10568.635570215392,1671625797.821,509,96902,52971
74174,10568.643324900897,1671625797.821,509,96902,52971
74175,10568.651079586401,1671625797.821,509,96928,53009
74175,10568.658834271906,1671625797.821,509,96928,53009
74176,10568.66658895741,1671625797.821,510,96885,52973
74176,10568.674343642915,1671625797.821,510,96885,52973
74177,10568.68209832842,1671625797.821,510,96854,53005
74177,10568.689853013924,1671625797.821,510,96854,53005
74178,10568.697607699429,1671625797.911,511,96895,52996
74178,10568.705362384933,1671625797.911,511,96895,52996
74179,10568.713117070438,1671625797.911,509,96897,53011
74179,10568.720871755942,1671625797.911,509,96897,53011
74180,10568.728626441447,1671625797.911,509,96876,53006
74180,10568.736381126952,1671625797.911,509,96876,53006
74181,10568.744135812456,1671625797.911,509,96969,53002
74181,10568.75189049796,1671625797.911,509,96969,53002
74182,10568.756368414402,1671625797.911,511,97030,53002
74182,10568.763358046603,1671625797.911,511,97030,53002
74183,10568.770347678803,1671625797.911,511,97022,52999
74183,10568.777337311003,1671625797.911,511,97022,52999
74184,10568.784326943203,1671625797.989,511,97027,53041
74184,10568.791316575403,1671625797.989,511,97027,53041
74185,10568.798306207604,1671625797.989,509,97032,53037
74185,10568.805295839804,1671625797.989,509,97032,53037
74186,10568.812285472004,1671625797.989,510,97054,53051
74186,10568.819275104204,1671625797.989,510,97054,53051
74187,10568.826264736404,1671625797.989,510,97111,53035
74187,10568.833254368605,1671625797.989,510,97111,53035
74188,10568.840244000805,1671625797.989,508,97060,53048
74188,10568.847233633005,1671625797.989,508,97060,53048
74189,10568.854223265205,1671625797.989,509,97110,53044
74189,10568.861212897405,1671625797.989,509,97110,53044
74190,10568.868202529606,1671625798.096,511,97094,53046
74190,10568.875192161806,1671625798.096,511,97094,53046
74191,10568.882181794006,1671625798.096,510,97152,53065
74191,10568.889171426206,1671625798.096,510,97152,53065
74192,10568.901033887149,1671625798.096,511,97165,53080
74192,10568.908752403726,1671625798.096,511,97165,53080
74193,10568.916470920303,1671625798.096,511,97174,53089
74193,10568.92418943688,1671625798.096,511,97174,53089
74194,10568.931907953458,1671625798.096,510,97231,53095
74194,10568.939626470035,1671625798.096,510,97231,53095
74195,10568.947344986613,1671625798.096,509,97223,53117
74195,10568.95506350319,1671625798.096,509,97223,53117
74196,10568.962782019767,1671625798.184,510,97280,53090
74196,10568.970500536345,1671625798.184,510,97280,53090
74197,10568.978219052922,1671625798.184,510,97168,53089
74197,10568.9859375695,1671625798.184,510,97168,53089
74198,10568.993656086077,1671625798.184,511,97100,53071
74198,10569.001374602654,1671625798.184,511,97100,53071
74199,10569.009093119232,1671625798.184,509,97032,53068
74199,10569.016811635809,1671625798.184,509,97032,53068
74200,10569.024530152386,1671625798.184,510,96886,53068
74200,10569.032248668964,1671625798.184,510,96886,53068
74201,10569.039967185541,1671625798.184,510,96795,53023
74201,10569.047685702119,1671625798.184,510,96795,53023
74202,10569.059669868699,1671625798.274,510,96793,53005
74202,10569.066545768976,1671625798.274,510,96793,53005
74203,10569.073421669253,1671625798.274,509,96748,53010
74203,10569.08029756953,1671625798.274,509,96748,53010
74204,10569.087173469807,1671625798.274,509,96733,52994
74204,10569.094049370084,1671625798.274,509,96733,52994
74205,10569.10092527036,1671625798.274,510,96684,52993
74205,10569.107801170638,1671625798.274,510,96684,52993
74206,10569.114677070915,1671625798.274,510,96594,52983
74206,10569.121552971192,1671625798.274,510,96594,52983
74207,10569.128428871469,1671625798.274,510,96637,52966
74207,10569.135304771746,1671625798.274,510,96637,52966
74208,10569.142180672023,1671625798.367,510,96618,52967
74208,10569.1490565723,1671625798.367,510,96618,52967
74209,10569.155932472577,1671625798.367,510,96646,52958
74209,10569.162808372854,1671625798.367,510,96646,52958
74210,10569.16968427313,1671625798.367,509,96607,52978
74210,10569.176560173408,1671625798.367,509,96607,52978
74211,10569.183436073685,1671625798.367,510,96584,52926
74211,10569.190311973962,1671625798.367,510,96584,52926
74212,10569.212119990761,1671625798.367,509,96647,52962
74212,10569.219390213973,1671625798.367,509,96647,52962
74213,10569.226660437185,1671625798.367,509,96646,52976
74213,10569.233930660397,1671625798.367,509,96646,52976
74214,10569.241200883609,1671625798.455,509,96647,52980
74214,10569.248471106821,1671625798.455,509,96647,52980
74215,10569.255741330033,1671625798.455,511,96640,52956
74215,10569.263011553245,1671625798.455,511,96640,52956
74216,10569.270281776457,1671625798.455,511,96618,52957
74216,10569.277551999669,1671625798.455,511,96618,52957
74217,10569.28482222288,1671625798.455,510,96585,52945
74217,10569.292092446092,1671625798.455,510,96585,52945
74218,10569.299362669304,1671625798.455,509,96603,52959
74218,10569.306632892516,1671625798.455,509,96603,52959
74219,10569.313903115728,1671625798.455,509,96560,52971
74219,10569.32117333894,1671625798.455,509,96560,52971
74220,10569.328443562152,1671625798.559,509,96623,52934
74220,10569.335713785364,1671625798.559,509,96623,52934
74221,10569.342984008576,1671625798.559,509,96566,52942
74221,10569.350254231787,1671625798.559,509,96566,52942
74222,10569.365658726756,1671625798.559,509,96532,52953
74222,10569.373399020515,1671625798.559,509,96532,52953
74223,10569.381139314273,1671625798.559,508,96588,52942
74223,10569.388879608032,1671625798.559,508,96588,52942
74224,10569.39661990179,1671625798.559,510,96611,52965
74224,10569.404360195549,1671625798.559,510,96611,52965
74225,10569.412100489308,1671625798.559,510,96625,52964
74225,10569.419840783066,1671625798.559,510,96625,52964
74226,10569.427581076825,1671625798.649,510,96615,52978
74226,10569.435321370584,1671625798.649,510,96615,52978
74227,10569.443061664342,1671625798.649,510,96655,52976
74227,10569.4508019581,1671625798.649,510,96655,52976
74228,10569.45854225186,1671625798.649,510,96611,52981
74228,10569.466282545618,1671625798.649,510,96611,52981
74229,10569.474022839377,1671625798.649,510,96658,52985
74229,10569.481763133135,1671625798.649,510,96658,52985
74230,10569.489503426894,1671625798.649,510,96679,52985
74230,10569.497243720652,1671625798.649,510,96679,52985
74231,10569.504984014411,1671625798.649,510,96686,52992
74231,10569.51272430817,1671625798.649,510,96686,52992
74232,10569.524880589757,1671625798.742,510,96691,53004
74232,10569.531962990359,1671625798.742,510,96691,53004
74233,10569.53904539096,1671625798.742,509,96725,53010
74233,10569.546127791562,1671625798.742,509,96725,53010
74234,10569.553210192164,1671625798.742,510,96758,53028
74234,10569.560292592765,1671625798.742,510,96758,53028
74235,10569.567374993367,1671625798.742,510,96733,53017
74235,10569.574457393968,1671625798.742,510,96733,53017
74236,10569.58153979457,1671625798.742,511,96777,53022
74236,10569.588622195171,1671625798.742,511,96777,53022
74237,10569.595704595773,1671625798.742,510,96819,53031
74237,10569.602786996375,1671625798.742,510,96819,53031
74238,10569.609869396976,1671625798.84,510,96804,53046
74238,10569.616951797578,1671625798.84,510,96804,53046
74239,10569.62403419818,1671625798.84,509,96828,53049
74239,10569.63111659878,1671625798.84,509,96828,53049
74240,10569.638198999382,1671625798.84,510,96882,53056
74240,10569.645281399984,1671625798.84,510,96882,53056
74241,10569.652363800586,1671625798.84,510,96896,53054
74241,10569.659446201187,1671625798.84,510,96896,53054
74242,10569.683608410012,1671625798.84,511,96869,53062
74242,10569.691249932923,1671625798.84,511,96869,53062
74243,10569.698891455833,1671625798.84,510,96892,53071
74243,10569.706532978744,1671625798.84,510,96892,53071
74244,10569.714174501654,1671625798.935,510,96967,53101
74244,10569.721816024565,1671625798.935,510,96967,53101
74245,10569.729457547475,1671625798.935,509,96903,53089
74245,10569.737099070386,1671625798.935,509,96903,53089
74246,10569.744740593296,1671625798.935,510,96890,53097
74246,10569.752382116207,1671625798.935,510,96890,53097
74247,10569.760023639117,1671625798.935,511,96839,53078
74247,10569.767665162028,1671625798.935,511,96839,53078
74248,10569.775306684938,1671625798.935,510,96798,53072
74248,10569.782948207849,1671625798.935,510,96798,53072
74249,10569.79058973076,1671625798.935,509,96682,53061
74249,10569.79823125367,1671625798.935,509,96682,53061
74250,10569.80587277658,1671625799.028,509,96620,53034
74250,10569.81351429949,1671625799.028,509,96620,53034
74251,10569.821155822401,1671625799.028,509,96571,53029
74251,10569.828797345312,1671625799.028,509,96571,53029
74252,10569.841754906898,1671625799.028,508,96491,53007
74252,10569.84907928174,1671625799.028,508,96491,53007
74253,10569.85640365658,1671625799.028,509,96478,53004
74253,10569.863728031421,1671625799.028,509,96478,53004
74254,10569.871052406263,1671625799.028,508,96459,53003
74254,10569.878376781104,1671625799.028,508,96459,53003
74255,10569.885701155945,1671625799.028,509,96434,52991
74255,10569.893025530786,1671625799.028,509,96434,52991
74256,10569.900349905627,1671625799.119,511,96396,52982
74256,10569.907674280468,1671625799.119,511,96396,52982
74257,10569.91499865531,1671625799.119,510,96415,52966
74257,10569.92232303015,1671625799.119,510,96415,52966
74258,10569.929647404992,1671625799.119,509,96364,52969
74258,10569.936971779833,1671625799.119,509,96364,52969
74259,10569.944296154674,1671625799.119,508,96433,52972
74259,10569.951620529515,1671625799.119,508,96433,52972
74260,10569.958944904356,1671625799.119,510,96404,52970
74260,10569.966269279197,1671625799.119,510,96404,52970
74261,10569.973593654038,1671625799.119,508,96381,52983
74261,10569.98091802888,1671625799.119,508,96381,52983
74262,10569.994922148933,1671625799.22,508,96365,52990
74262,10570.00204950513,1671625799.22,508,96365,52990
74263,10570.009176861327,1671625799.22,509,96332,52972
74263,10570.016304217525,1671625799.22,509,96332,52972
74264,10570.023431573722,1671625799.22,509,96412,52983
74264,10570.030558929919,1671625799.22,509,96412,52983
74265,10570.037686286116,1671625799.22,508,96397,52979
74265,10570.044813642313,1671625799.22,508,96397,52979
74266,10570.05194099851,1671625799.22,509,96449,52988
74266,10570.059068354707,1671625799.22,509,96449,52988
74267,10570.066195710904,1671625799.22,509,96423,52974
74267,10570.073323067101,1671625799.22,509,96423,52974
74268,10570.080450423298,1671625799.309,509,96389,52980
74268,10570.087577779495,1671625799.309,509,96389,52980
74269,10570.094705135692,1671625799.309,509,96372,52989
74269,10570.10183249189,1671625799.309,509,96372,52989
74270,10570.108959848087,1671625799.309,510,96315,52969
74270,10570.116087204284,1671625799.309,510,96315,52969
74271,10570.12321456048,1671625799.309,509,96395,52978
74271,10570.130341916678,1671625799.309,509,96395,52978
74272,10570.155343373388,1671625799.309,510,96395,52994
74272,10570.162370731756,1671625799.309,510,96395,52994
74273,10570.169398090124,1671625799.309,510,96351,52990
74273,10570.176425448491,1671625799.309,510,96351,52990
74274,10570.18345280686,1671625799.407,510,96373,52985
74274,10570.190480165227,1671625799.407,510,96373,52985
74275,10570.197507523595,1671625799.407,510,96380,52996
74275,10570.204534881963,1671625799.407,510,96380,52996
74276,10570.21156224033,1671625799.407,510,96361,52993
74276,10570.218589598699,1671625799.407,510,96361,52993
74277,10570.225616957066,1671625799.407,511,96379,53011
74277,10570.232644315434,1671625799.407,511,96379,53011
74278,10570.239671673802,1671625799.407,509,96435,53000
74278,10570.24669903217,1671625799.407,509,96435,53000
74279,10570.253726390538,1671625799.407,510,96500,53024
74279,10570.260753748906,1671625799.407,510,96500,53024
74280,10570.267781107274,1671625799.49,510,96499,53006
74280,10570.274808465641,1671625799.49,510,96499,53006
74281,10570.28183582401,1671625799.49,509,96499,53041
74281,10570.288863182377,1671625799.49,509,96499,53041
74282,10570.310208320507,1671625799.49,510,96500,53031
74282,10570.317001918793,1671625799.49,510,96500,53031
74283,10570.323795517079,1671625799.49,509,96582,53068
74283,10570.330589115365,1671625799.49,509,96582,53068
74284,10570.337382713651,1671625799.49,509,96541,53062
74284,10570.344176311937,1671625799.49,509,96541,53062
74285,10570.350969910223,1671625799.49,509,96564,53070
74285,10570.35776350851,1671625799.49,509,96564,53070
74286,10570.364557106795,1671625799.582,509,96558,53072
74286,10570.371350705082,1671625799.582,509,96558,53072
74287,10570.378144303368,1671625799.582,509,96578,53073
74287,10570.384937901654,1671625799.582,509,96578,53073
74288,10570.39173149994,1671625799.582,509,96627,53070
74288,10570.398525098226,1671625799.582,509,96627,53070
74289,10570.405318696512,1671625799.582,510,96608,53100
74289,10570.412112294798,1671625799.582,510,96608,53100
74290,10570.418905893084,1671625799.582,510,96651,53105
74290,10570.42569949137,1671625799.582,510,96651,53105
74291,10570.432493089656,1671625799.582,509,96630,53108
74291,10570.439286687943,1671625799.582,509,96630,53108
74292,10570.457409249102,1671625799.707,508,96750,53140
74292,10570.464587063014,1671625799.707,508,96750,53140
74293,10570.471764876926,1671625799.707,509,96734,53132
74293,10570.478942690837,1671625799.707,509,96734,53132
74294,10570.48612050475,1671625799.707,509,96707,53125
74294,10570.49329831866,1671625799.707,509,96707,53125
74295,10570.500476132573,1671625799.707,509,96748,53132
74295,10570.507653946484,1671625799.707,509,96748,53132
74296,10570.514831760396,1671625799.707,510,96724,53160
74296,10570.522009574308,1671625799.707,510,96724,53160
74297,10570.52918738822,1671625799.707,509,96784,53155
74297,10570.536365202131,1671625799.707,509,96784,53155
74298,10570.543543016043,1671625799.776,509,96706,53140
74298,10570.550720829955,1671625799.776,509,96706,53140
74299,10570.557898643867,1671625799.776,509,96588,53139
74299,10570.565076457779,1671625799.776,509,96588,53139
74300,10570.57225427169,1671625799.776,509,96530,53116
74300,10570.579432085602,1671625799.776,509,96530,53116
74301,10570.586609899514,1671625799.776,510,96425,53071
74301,10570.593787713426,1671625799.776,510,96425,53071
74302,10570.627410344976,1671625799.776,509,96327,53065
74302,10570.633059432677,1671625799.776,509,96327,53065
74303,10570.638708520379,1671625799.776,509,96288,53062
74303,10570.64435760808,1671625799.776,509,96288,53062
74304,10570.650006695781,1671625799.865,509,96315,53060
74304,10570.655655783483,1671625799.865,509,96315,53060
74305,10570.661304871184,1671625799.865,509,96317,53064
74305,10570.666953958886,1671625799.865,509,96317,53064
74306,10570.672603046587,1671625799.865,509,96287,53049
74306,10570.678252134288,1671625799.865,509,96287,53049
74307,10570.68390122199,1671625799.865,510,96232,53022
74307,10570.689550309691,1671625799.865,510,96232,53022
74308,10570.695199397393,1671625799.865,508,96217,53031
74308,10570.700848485094,1671625799.865,508,96217,53031
74309,10570.706497572795,1671625799.865,510,96267,53046
74309,10570.712146660497,1671625799.865,510,96267,53046
74310,10570.717795748198,1671625799.959,509,96218,53026
74310,10570.7234448359,1671625799.959,509,96218,53026
74311,10570.7290939236,1671625799.959,510,96154,53045
74311,10570.734743011302,1671625799.959,510,96154,53045
74312,10570.772031177044,1671625799.959,509,96249,53055
74312,10570.77926568421,1671625799.959,509,96249,53055
74313,10570.786500191376,1671625799.959,510,96290,53041
74313,10570.793734698542,1671625799.959,510,96290,53041
74314,10570.800969205708,1671625799.959,509,96251,53043
74314,10570.808203712873,1671625799.959,509,96251,53043
74315,10570.81543822004,1671625799.959,510,96235,53040
74315,10570.822672727205,1671625799.959,510,96235,53040
74316,10570.82990723437,1671625800.075,510,96218,53029
74316,10570.837141741536,1671625800.075,510,96218,53029
74317,10570.844376248702,1671625800.075,508,96222,53038
74317,10570.851610755868,1671625800.075,508,96222,53038
74318,10570.858845263034,1671625800.075,508,96206,53049
74318,10570.8660797702,1671625800.075,508,96206,53049
74319,10570.873314277365,1671625800.075,508,96185,53029
74319,10570.880548784531,1671625800.075,508,96185,53029
74320,10570.887783291697,1671625800.075,510,96208,53043
74320,10570.895017798863,1671625800.075,510,96208,53043
74321,10570.902252306028,1671625800.075,509,96233,53046
74321,10570.909486813194,1671625800.075,509,96233,53046
74322,10570.952769263467,1671625800.149,509,96199,53040
74322,10570.961770321217,1671625800.149,509,96199,53040
74323,10570.970771378967,1671625800.149,509,96220,53030
74323,10570.979772436716,1671625800.149,509,96220,53030
74324,10570.988773494466,1671625800.149,508,96211,53050
74324,10570.997774552216,1671625800.149,508,96211,53050
74325,10571.006775609965,1671625800.149,510,96197,53063
74325,10571.015776667715,1671625800.149,510,96197,53063
74326,10571.024777725464,1671625800.149,508,96251,53070
74326,10571.033778783214,1671625800.149,508,96251,53070
74327,10571.042779840964,1671625800.149,508,96241,53065
74327,10571.051780898713,1671625800.149,508,96241,53065
74328,10571.060781956463,1671625800.24,509,96295,53079
74328,10571.069783014213,1671625800.24,509,96295,53079
74329,10571.078784071962,1671625800.24,510,96296,53088
74329,10571.087785129712,1671625800.24,510,96296,53088
74330,10571.096786187461,1671625800.24,511,96284,53089
74330,10571.105787245211,1671625800.24,511,96284,53089
74331,10571.11478830296,1671625800.24,509,96280,53098
74331,10571.12378936071,1671625800.24,509,96280,53098
74332,10571.085084965289,1671625800.24,508,96314,53092
74332,10571.092075480812,1671625800.24,508,96314,53092
74333,10571.099065996335,1671625800.24,509,96315,53118
74333,10571.106056511859,1671625800.24,509,96315,53118
74334,10571.113047027382,1671625800.329,510,96375,53109
74334,10571.120037542905,1671625800.329,510,96375,53109
74335,10571.127028058429,1671625800.329,509,96409,53117
74335,10571.134018573952,1671625800.329,509,96409,53117
74336,10571.141009089475,1671625800.329,511,96417,53123
74336,10571.147999604998,1671625800.329,511,96417,53123
74337,10571.154990120522,1671625800.329,510,96413,53144
74337,10571.161980636045,1671625800.329,510,96413,53144
74338,10571.168971151568,1671625800.329,510,96478,53147
74338,10571.175961667092,1671625800.329,510,96478,53147
74339,10571.182952182615,1671625800.329,509,96469,53158
74339,10571.189942698138,1671625800.329,509,96469,53158
74340,10571.196933213661,1671625800.436,510,96458,53153
74340,10571.203923729185,1671625800.436,510,96458,53153
74341,10571.210914244708,1671625800.436,508,96527,53170
74341,10571.217904760231,1671625800.436,508,96527,53170
74342,10571.241643515139,1671625800.436,508,96571,53193
74342,10571.249603522696,1671625800.436,508,96571,53193
74343,10571.257563530253,1671625800.436,509,96546,53202
74343,10571.26552353781,1671625800.436,509,96546,53202
74344,10571.273483545367,1671625800.436,509,96541,53200
74344,10571.281443552924,1671625800.436,509,96541,53200
74345,10571.28940356048,1671625800.436,510,96600,53221
74345,10571.297363568037,1671625800.436,510,96600,53221
74346,10571.305323575594,1671625800.531,509,96635,53219
74346,10571.313283583151,1671625800.531,509,96635,53219
74347,10571.321243590708,1671625800.531,509,96626,53212
74347,10571.329203598265,1671625800.531,509,96626,53212
74348,10571.337163605822,1671625800.531,510,96675,53239
74348,10571.345123613379,1671625800.531,510,96675,53239
74349,10571.353083620936,1671625800.531,507,96685,53237
74349,10571.361043628493,1671625800.531,507,96685,53237
74350,10571.36900363605,1671625800.531,509,96651,53232
74350,10571.376963643606,1671625800.531,509,96651,53232
74351,10571.384923651163,1671625800.531,508,96569,53227
74351,10571.39288365872,1671625800.531,508,96569,53227
74352,10571.406926983962,1671625800.617,509,96484,53194
74352,10571.414313742484,1671625800.617,509,96484,53194
74353,10571.421700501005,1671625800.617,510,96439,53188
74353,10571.429087259527,1671625800.617,510,96439,53188
74354,10571.436474018048,1671625800.617,511,96278,53161
74354,10571.44386077657,1671625800.617,511,96278,53161
74355,10571.451247535091,1671625800.617,508,96228,53149
74355,10571.458634293613,1671625800.617,508,96228,53149
74356,10571.466021052134,1671625800.617,510,96206,53163
74356,10571.473407810656,1671625800.617,510,96206,53163
74357,10571.480794569177,1671625800.617,509,96188,53134
74357,10571.488181327699,1671625800.617,509,96188,53134
74358,10571.49556808622,1671625800.719,508,96181,53128
74358,10571.502954844742,1671625800.719,508,96181,53128
74359,10571.510341603263,1671625800.719,509,96131,53122
74359,10571.517728361785,1671625800.719,509,96131,53122
74360,10571.525115120307,1671625800.719,509,96137,53111
74360,10571.532501878828,1671625800.719,509,96137,53111
74361,10571.53988863735,1671625800.719,510,96089,53109
74361,10571.547275395871,1671625800.719,510,96089,53109
74362,10571.56153559258,1671625800.719,511,96054,53111
74362,10571.56938247064,1671625800.719,511,96054,53111
74363,10571.577229348699,1671625800.719,509,96064,53110
74363,10571.585076226758,1671625800.719,509,96064,53110
74364,10571.592923104818,1671625800.809,509,96039,53112
74364,10571.600769982877,1671625800.809,509,96039,53112
74365,10571.608616860936,1671625800.809,509,96067,53104
74365,10571.616463738996,1671625800.809,509,96067,53104
74366,10571.624310617055,1671625800.809,509,96095,53111
74366,10571.632157495114,1671625800.809,509,96095,53111
74367,10571.640004373174,1671625800.809,509,96060,53093
74367,10571.647851251233,1671625800.809,509,96060,53093
74368,10571.655698129292,1671625800.809,509,96091,53113
74368,10571.663545007352,1671625800.809,509,96091,53113
74369,10571.671391885411,1671625800.809,509,96028,53106
74369,10571.67923876347,1671625800.809,509,96028,53106
74370,10571.68708564153,1671625800.9,509,96007,53098
74370,10571.69493251959,1671625800.9,509,96007,53098
74371,10571.702779397649,1671625800.9,511,96028,53101
74371,10571.710626275708,1671625800.9,511,96028,53101
74372,10571.715005649039,1671625800.9,510,96004,53113
74372,10571.722100761366,1671625800.9,510,96004,53113
74373,10571.729195873693,1671625800.9,509,96091,53108
74373,10571.73629098602,1671625800.9,509,96091,53108
74374,10571.743386098347,1671625800.9,508,96095,53126
74374,10571.750481210674,1671625800.9,508,96095,53126
74375,10571.757576323002,1671625800.9,508,96052,53106
74375,10571.764671435329,1671625800.9,508,96052,53106
74376,10571.771766547656,1671625801.003,509,96066,53075
74376,10571.778861659983,1671625801.003,509,96066,53075
74377,10571.78595677231,1671625801.003,509,96091,53126
74377,10571.793051884637,1671625801.003,509,96091,53126
74378,10571.800146996964,1671625801.003,509,96060,53121
74378,10571.807242109291,1671625801.003,509,96060,53121
74379,10571.814337221618,1671625801.003,509,96104,53113
74379,10571.821432333945,1671625801.003,509,96104,53113
74380,10571.828527446272,1671625801.003,510,96097,53122
74380,10571.8356225586,1671625801.003,510,96097,53122
74381,10571.842717670927,1671625801.003,510,96109,53126
74381,10571.849812783254,1671625801.003,510,96109,53126
74382,10571.880464095562,1671625801.083,509,96138,53142
74382,10571.888540317552,1671625801.083,509,96138,53142
74383,10571.896616539541,1671625801.083,509,96147,53146
74383,10571.90469276153,1671625801.083,509,96147,53146
74384,10571.91276898352,1671625801.083,510,96149,53140
74384,10571.92084520551,1671625801.083,510,96149,53140
74385,10571.9289214275,1671625801.083,509,96180,53146
74385,10571.936997649489,1671625801.083,509,96180,53146
74386,10571.945073871479,1671625801.083,510,96187,53170
74386,10571.953150093468,1671625801.083,510,96187,53170
74387,10571.961226315458,1671625801.083,510,96222,53177
74387,10571.969302537447,1671625801.083,510,96222,53177
74388,10571.977378759437,1671625801.185,509,96237,53176
74388,10571.985454981426,1671625801.185,509,96237,53176
74389,10571.993531203416,1671625801.185,508,96302,53187
74389,10572.001607425405,1671625801.185,508,96302,53187
74390,10572.009683647395,1671625801.185,509,96368,53210
74390,10572.017759869384,1671625801.185,509,96368,53210
74391,10572.025836091374,1671625801.185,508,96337,53199
74391,10572.033912313364,1671625801.185,508,96337,53199
74392,10572.027521928978,1671625801.185,511,96290,53221
74392,10572.035345215274,1671625801.185,511,96290,53221
74393,10572.04316850157,1671625801.185,510,96386,53207
74393,10572.050991787866,1671625801.185,510,96386,53207
74394,10572.058815074162,1671625801.275,511,96359,53222
74394,10572.066638360458,1671625801.275,511,96359,53222
74395,10572.074461646755,1671625801.275,512,96462,53237
74395,10572.08228493305,1671625801.275,512,96462,53237
74396,10572.090108219347,1671625801.275,510,96468,53254
74396,10572.097931505643,1671625801.275,510,96468,53254
74397,10572.105754791939,1671625801.275,509,96449,53259
74397,10572.113578078235,1671625801.275,509,96449,53259
74398,10572.121401364531,1671625801.275,508,96457,53257
74398,10572.129224650827,1671625801.275,508,96457,53257
74399,10572.137047937123,1671625801.275,508,96513,53247
74399,10572.14487122342,1671625801.275,508,96513,53247
74400,10572.152694509716,1671625801.366,509,96473,53261
74400,10572.160517796012,1671625801.366,509,96473,53261
74401,10572.168341082308,1671625801.366,509,96554,53277
74401,10572.176164368604,1671625801.366,509,96554,53277
74402,10572.181061508567,1671625801.366,510,96586,53293
74402,10572.188190832969,1671625801.366,510,96586,53293
74403,10572.19532015737,1671625801.366,510,96594,53293
74403,10572.202449481772,1671625801.366,510,96594,53293
74404,10572.209578806174,1671625801.366,509,96567,53286
74404,10572.216708130576,1671625801.366,509,96567,53286
74405,10572.223837454978,1671625801.366,510,96648,53326
74405,10572.23096677938,1671625801.366,510,96648,53326
74406,10572.238096103782,1671625801.455,509,96606,53303
74406,10572.245225428183,1671625801.455,509,96606,53303
74407,10572.252354752585,1671625801.455,511,96638,53331
74407,10572.259484076987,1671625801.455,511,96638,53331
74408,10572.266613401389,1671625801.455,510,96621,53310
74408,10572.27374272579,1671625801.455,510,96621,53310
74409,10572.280872050193,1671625801.455,509,96545,53306
74409,10572.288001374594,1671625801.455,509,96545,53306
74410,10572.295130698996,1671625801.455,512,96424,53283
74410,10572.302260023398,1671625801.455,512,96424,53283
74411,10572.3093893478,1671625801.455,508,96295,53250
74411,10572.316518672202,1671625801.455,508,96295,53250
74412,10572.330836326933,1671625801.559,509,96255,53252
74412,10572.337777656227,1671625801.559,509,96255,53252
74413,10572.34471898552,1671625801.559,510,96217,53235
74413,10572.351660314813,1671625801.559,510,96217,53235
74414,10572.358601644106,1671625801.559,508,96187,53233
74414,10572.365542973399,1671625801.559,508,96187,53233
74415,10572.372484302692,1671625801.559,508,96228,53195
74415,10572.379425631985,1671625801.559,508,96228,53195
74416,10572.386366961278,1671625801.559,509,96167,53189
74416,10572.393308290571,1671625801.559,509,96167,53189
74417,10572.400249619865,1671625801.559,510,96113,53208
74417,10572.407190949158,1671625801.559,510,96113,53208
74418,10572.41413227845,1671625801.65,509,96113,53195
74418,10572.421073607744,1671625801.65,509,96113,53195
74419,10572.428014937037,1671625801.65,509,96111,53214
74419,10572.43495626633,1671625801.65,509,96111,53214
74420,10572.441897595623,1671625801.65,511,96045,53182
74420,10572.448838924916,1671625801.65,511,96045,53182
74421,10572.45578025421,1671625801.65,509,96128,53202
74421,10572.462721583503,1671625801.65,509,96128,53202
74422,10572.49535203114,1671625801.65,509,96098,53164
74422,10572.50249292254,1671625801.65,509,96098,53164
74423,10572.509633813941,1671625801.65,510,96105,53175
74423,10572.516774705342,1671625801.65,510,96105,53175
74424,10572.523915596743,1671625801.74,510,96144,53183
74424,10572.531056488144,1671625801.74,510,96144,53183
74425,10572.538197379545,1671625801.74,508,96136,53194
74425,10572.545338270946,1671625801.74,508,96136,53194
74426,10572.552479162347,1671625801.74,509,96080,53192
74426,10572.559620053747,1671625801.74,509,96080,53192
74427,10572.566760945148,1671625801.74,509,96156,53188
74427,10572.57390183655,1671625801.74,509,96156,53188
74428,10572.58104272795,1671625801.74,511,96113,53192
74428,10572.588183619351,1671625801.74,511,96113,53192
74429,10572.595324510752,1671625801.74,508,96109,53182
74429,10572.602465402153,1671625801.74,508,96109,53182
74430,10572.609606293554,1671625801.837,509,96106,53196
74430,10572.616747184955,1671625801.837,509,96106,53196
74431,10572.623888076356,1671625801.837,509,96076,53192
74431,10572.631028967757,1671625801.837,509,96076,53192
74432,10572.648399262125,1671625801.837,508,96082,53172
74432,10572.65584097772,1671625801.837,508,96082,53172
74433,10572.663282693316,1671625801.837,509,96098,53164
74433,10572.670724408912,1671625801.837,509,96098,53164
74434,10572.678166124508,1671625801.837,510,96111,53179
74434,10572.685607840103,1671625801.837,510,96111,53179
74435,10572.693049555699,1671625801.837,509,96101,53188
74435,10572.700491271295,1671625801.837,509,96101,53188
74436,10572.70793298689,1671625801.934,510,96096,53173
74436,10572.715374702486,1671625801.934,510,96096,53173
74437,10572.722816418081,1671625801.934,509,96137,53199
74437,10572.730258133677,1671625801.934,509,96137,53199
74438,10572.737699849273,1671625801.934,508,96193,53213
74438,10572.745141564868,1671625801.934,508,96193,53213
74439,10572.752583280464,1671625801.934,509,96163,53201
74439,10572.76002499606,1671625801.934,509,96163,53201
74440,10572.767466711655,1671625801.934,509,96184,53208
74440,10572.774908427251,1671625801.934,509,96184,53208
74441,10572.782350142847,1671625801.934,510,96260,53223
74441,10572.789791858442,1671625801.934,510,96260,53223
74442,10572.810421238673,1671625802.029,509,96240,53221
74442,10572.817985788355,1671625802.029,509,96240,53221
74443,10572.825550338037,1671625802.029,510,96315,53248
74443,10572.833114887719,1671625802.029,510,96315,53248
74444,10572.8406794374,1671625802.029,510,96316,53233
74444,10572.848243987082,1671625802.029,510,96316,53233
74445,10572.855808536764,1671625802.029,509,96277,53240
74445,10572.863373086446,1671625802.029,509,96277,53240
74446,10572.870937636128,1671625802.029,508,96333,53263
74446,10572.87850218581,1671625802.029,508,96333,53263
74447,10572.886066735491,1671625802.029,508,96337,53280
74447,10572.893631285173,1671625802.029,508,96337,53280
74448,10572.901195834855,1671625802.115,509,96402,53258
74448,10572.908760384536,1671625802.115,509,96402,53258
