id,lsl_ts,unix_ts,ambient,ir,red
0,8480.944080983332,1671623710.096,581,137488,98421
0,8480.944080983332,1671623710.096,581,137488,98421
1,8480.947779866667,1671623710.096,557,166834,106162
1,8480.947779866667,1671623710.096,557,166834,106162
2,8480.951478750001,1671623710.096,557,166830,106124
2,8480.951478750001,1671623710.096,557,166830,106124
3,8480.955177633334,1671623710.096,556,166846,106102
3,8480.955177633334,1671623710.096,556,166846,106102
4,8480.958876516666,1671623710.096,556,166739,106059
4,8480.958876516666,1671623710.096,556,166739,106059
5,8480.9625754,1671623710.096,557,166786,106045
5,8480.9625754,1671623710.096,557,166786,106045
6,8480.984898766666,1671623710.23,552,166726,106004
6,8480.984898766666,1671623710.23,552,166726,106004
7,8481.007222133334,1671623710.23,554,166721,105978
7,8481.007222133334,1671623710.23,554,166721,105978
8,8481.029545500001,1671623710.23,553,166686,105940
8,8481.029545500001,1671623710.23,553,166686,105940
9,8481.051868866667,1671623710.23,554,166714,105957
9,8481.051868866667,1671623710.23,554,166714,105957
10,8481.074192233333,1671623710.23,554,166569,105958
10,8481.074192233333,1671623710.23,554,166569,105958
11,8481.0965156,1671623710.23,557,166624,105946
11,8481.0965156,1671623710.23,557,166624,105946
12,8481.098946016667,1671623710.245,556,166670,105954
12,8481.098946016667,1671623710.245,556,166670,105954
13,8481.101376433333,1671623710.245,555,166634,105955
13,8481.101376433333,1671623710.245,555,166634,105955
14,8481.10380685,1671623710.245,554,166637,105968
14,8481.10380685,1671623710.245,554,166637,105968
15,8481.106237266667,1671623710.245,552,166692,105938
15,8481.106237266667,1671623710.245,552,166692,105938
16,8481.108667683333,1671623710.245,552,166621,105962
16,8481.108667683333,1671623710.245,552,166621,105962
17,8481.1110981,1671623710.245,553,166576,105957
17,8481.1110981,1671623710.245,553,166576,105957
18,8481.125992933334,1671623710.334,553,166548,105914
18,8481.125992933334,1671623710.334,553,166548,105914
19,8481.140887766667,1671623710.334,558,166635,105893
19,8481.140887766667,1671623710.334,558,166635,105893
20,8481.155782599999,1671623710.334,554,166618,105913
20,8481.155782599999,1671623710.334,554,166618,105913
21,8481.170677433332,1671623710.334,556,166631,105897
21,8481.170677433332,1671623710.334,556,166631,105897
22,8481.185572266666,1671623710.334,554,166613,105875
22,8481.185572266666,1671623710.334,554,166613,105875
23,8481.2004671,1671623710.334,553,166596,105923
23,8481.2004671,1671623710.334,553,166596,105923
24,8481.217711233334,1671623710.438,551,166645,105944
24,8481.217711233334,1671623710.438,551,166645,105944
25,8481.234955366666,1671623710.438,552,166595,105925
25,8481.234955366666,1671623710.438,552,166595,105925
26,8481.252199499999,1671623710.438,555,166715,105962
26,8481.252199499999,1671623710.438,555,166715,105962
27,8481.269443633333,1671623710.438,557,166693,105968
27,8481.269443633333,1671623710.438,557,166693,105968
28,8481.286687766667,1671623710.438,554,166609,105937
28,8481.286687766667,1671623710.438,554,166609,105937
29,8481.3039319,1671623710.438,555,166634,105931
29,8481.3039319,1671623710.438,555,166634,105931
30,8481.318520616667,1671623710.525,551,166691,105934
30,8481.318520616667,1671623710.525,551,166691,105934
31,8481.333109333333,1671623710.525,553,166691,105931
31,8481.333109333333,1671623710.525,553,166691,105931
32,8481.34769805,1671623710.525,552,166672,105932
32,8481.34769805,1671623710.525,552,166672,105932
33,8481.362286766667,1671623710.525,555,166662,105942
33,8481.362286766667,1671623710.525,555,166662,105942
34,8481.376875483333,1671623710.525,555,166710,105928
34,8481.376875483333,1671623710.525,555,166710,105928
35,8481.3914642,1671623710.525,556,166773,105945
35,8481.3914642,1671623710.525,556,166773,105945
36,8481.418109383334,1671623710.685,557,166713,105954
36,8481.418109383334,1671623710.685,557,166713,105954
37,8481.444754566666,1671623710.685,556,166778,105947
37,8481.444754566666,1671623710.685,556,166778,105947
38,8481.47139975,1671623710.685,554,166719,105967
38,8481.47139975,1671623710.685,554,166719,105967
39,8481.498044933334,1671623710.685,553,166755,105967
39,8481.498044933334,1671623710.685,553,166755,105967
40,8481.524690116667,1671623710.685,552,166768,105989
40,8481.524690116667,1671623710.685,552,166768,105989
41,8481.5513353,1671623710.685,556,166693,105965
41,8481.5513353,1671623710.685,556,166693,105965
42,8481.554295400001,1671623710.703,557,166758,105963
42,8481.554295400001,1671623710.703,557,166758,105963
43,8481.5572555,1671623710.703,559,166763,105973
43,8481.5572555,1671623710.703,559,166763,105973
44,8481.5602156,1671623710.703,557,166785,105979
44,8481.5602156,1671623710.703,557,166785,105979
45,8481.563175700001,1671623710.703,556,166818,105952
45,8481.563175700001,1671623710.703,556,166818,105952
46,8481.5661358,1671623710.703,554,166833,105963
46,8481.5661358,1671623710.703,554,166833,105963
47,8481.5690959,1671623710.703,552,166836,105938
47,8481.5690959,1671623710.703,552,166836,105938
48,8481.582171466667,1671623710.781,554,166757,105932
48,8481.582171466667,1671623710.781,554,166757,105932
49,8481.595247033334,1671623710.781,554,166726,105933
49,8481.595247033334,1671623710.781,554,166726,105933
50,8481.608322600001,1671623710.781,555,166652,105903
50,8481.608322600001,1671623710.781,555,166652,105903
51,8481.621398166666,1671623710.781,558,166667,105900
51,8481.621398166666,1671623710.781,558,166667,105900
52,8481.634473733333,1671623710.781,555,166551,105910
52,8481.634473733333,1671623710.781,555,166551,105910
53,8481.6475493,1671623710.781,557,166603,105905
53,8481.6475493,1671623710.781,557,166603,105905
54,8481.6630775,1671623710.874,553,166681,105984
54,8481.6630775,1671623710.874,553,166681,105984
55,8481.678605699999,1671623710.874,553,166671,105985
55,8481.678605699999,1671623710.874,553,166671,105985
56,8481.6941339,1671623710.874,552,166563,105994
56,8481.6941339,1671623710.874,552,166563,105994
57,8481.7096621,1671623710.874,554,166589,105956
57,8481.7096621,1671623710.874,554,166589,105956
58,8481.7251903,1671623710.874,555,166630,105978
58,8481.7251903,1671623710.874,555,166630,105978
59,8481.7407185,1671623710.874,558,166561,105960
59,8481.7407185,1671623710.874,558,166561,105960
60,8481.758439083333,1671623710.981,556,166571,105945
60,8481.758439083333,1671623710.981,556,166571,105945
61,8481.776159666666,1671623710.981,556,166568,105950
61,8481.776159666666,1671623710.981,556,166568,105950
62,8481.79388025,1671623710.981,554,166552,105942
62,8481.79388025,1671623710.981,554,166552,105942
63,8481.811600833333,1671623710.981,553,166594,105940
63,8481.811600833333,1671623710.981,553,166594,105940
64,8481.829321416666,1671623710.981,554,166544,105953
64,8481.829321416666,1671623710.981,554,166544,105953
65,8481.847042,1671623710.981,555,166588,105960
65,8481.847042,1671623710.981,555,166588,105960
66,8481.861929966666,1671623711.07,557,166581,105957
66,8481.861929966666,1671623711.07,557,166581,105957
67,8481.876817933333,1671623711.07,560,166544,105956
67,8481.876817933333,1671623711.07,560,166544,105956
68,8481.8917059,1671623711.07,557,166566,105967
68,8481.8917059,1671623711.07,557,166566,105967
69,8481.906593866666,1671623711.07,558,166518,105981
69,8481.906593866666,1671623711.07,558,166518,105981
70,8481.921481833333,1671623711.07,556,166501,105993
70,8481.921481833333,1671623711.07,556,166501,105993
71,8481.9363698,1671623711.07,554,166572,105970
71,8481.9363698,1671623711.07,554,166572,105970
72,8481.952139633333,1671623711.165,553,166582,105982
72,8481.952139633333,1671623711.165,553,166582,105982
73,8481.967909466666,1671623711.165,554,166531,105988
73,8481.967909466666,1671623711.165,554,166531,105988
74,8481.9836793,1671623711.165,556,166569,106104
74,8481.9836793,1671623711.165,556,166569,106104
75,8481.999449133333,1671623711.165,557,166653,106185
75,8481.999449133333,1671623711.165,557,166653,106185
76,8482.015218966666,1671623711.165,557,166735,106226
76,8482.015218966666,1671623711.165,557,166735,106226
77,8482.0309888,1671623711.165,558,166729,106219
77,8482.0309888,1671623711.165,558,166729,106219
78,8482.049661866666,1671623711.277,556,166735,106257
78,8482.049661866666,1671623711.277,556,166735,106257
79,8482.068334933332,1671623711.277,556,166681,106247
79,8482.068334933332,1671623711.277,556,166681,106247
80,8482.087007999999,1671623711.277,554,166715,106239
80,8482.087007999999,1671623711.277,554,166715,106239
81,8482.105681066667,1671623711.277,557,166715,106187
81,8482.105681066667,1671623711.277,557,166715,106187
82,8482.124354133333,1671623711.277,558,166728,106147
82,8482.124354133333,1671623711.277,558,166728,106147
83,8482.1430272,1671623711.277,559,166732,106086
83,8482.1430272,1671623711.277,559,166732,106086
84,8482.154416466667,1671623711.345,558,166773,106097
84,8482.154416466667,1671623711.345,558,166773,106097
85,8482.165805733333,1671623711.345,558,166765,106049
85,8482.165805733333,1671623711.345,558,166765,106049
86,8482.177195,1671623711.345,557,166752,106028
86,8482.177195,1671623711.345,557,166752,106028
87,8482.188584266667,1671623711.345,556,166735,106000
87,8482.188584266667,1671623711.345,556,166735,106000
88,8482.199973533334,1671623711.345,558,166703,106005
88,8482.199973533334,1671623711.345,558,166703,106005
89,8482.2113628,1671623711.345,555,166769,105985
89,8482.2113628,1671623711.345,555,166769,105985
90,8482.226483766666,1671623711.436,560,166814,105980
90,8482.226483766666,1671623711.436,560,166814,105980
91,8482.241604733334,1671623711.436,559,166785,105955
91,8482.241604733334,1671623711.436,559,166785,105955
92,8482.256725700001,1671623711.436,559,166728,105942
92,8482.256725700001,1671623711.436,559,166728,105942
93,8482.271846666667,1671623711.436,558,166786,105920
93,8482.271846666667,1671623711.436,558,166786,105920
94,8482.286967633332,1671623711.436,556,166821,105921
94,8482.286967633332,1671623711.436,556,166821,105921
95,8482.3020886,1671623711.436,556,166828,105882
95,8482.3020886,1671623711.436,556,166828,105882
96,8482.317564916666,1671623711.529,558,166701,105863
96,8482.317564916666,1671623711.529,558,166701,105863
97,8482.333041233333,1671623711.529,558,166737,105780
97,8482.333041233333,1671623711.529,558,166737,105780
98,8482.348517549999,1671623711.529,558,166747,105825
98,8482.348517549999,1671623711.529,558,166747,105825
99,8482.363993866667,1671623711.529,559,166706,105827
99,8482.363993866667,1671623711.529,559,166706,105827
100,8482.379470183334,1671623711.529,559,166808,105794
100,8482.379470183334,1671623711.529,559,166808,105794
101,8482.3949465,1671623711.529,557,166694,105800
101,8482.3949465,1671623711.529,557,166694,105800
102,8482.41159475,1671623711.628,557,166616,105744
102,8482.41159475,1671623711.628,557,166616,105744
103,8482.428243,1671623711.628,554,166668,105768
103,8482.428243,1671623711.628,554,166668,105768
104,8482.444891250001,1671623711.628,557,166590,105766
104,8482.444891250001,1671623711.628,557,166590,105766
105,8482.4615395,1671623711.628,557,166586,105723
105,8482.4615395,1671623711.628,557,166586,105723
106,8482.478187749999,1671623711.628,559,166583,105721
106,8482.478187749999,1671623711.628,559,166583,105721
107,8482.494836,1671623711.628,558,166574,105708
107,8482.494836,1671623711.628,558,166574,105708
108,8482.5100854,1671623711.72,559,166572,105718
108,8482.5100854,1671623711.72,559,166572,105718
109,8482.5253348,1671623711.72,559,166552,105692
109,8482.5253348,1671623711.72,559,166552,105692
110,8482.5405842,1671623711.72,557,166548,105683
110,8482.5405842,1671623711.72,557,166548,105683
111,8482.5558336,1671623711.72,556,166502,105703
111,8482.5558336,1671623711.72,556,166502,105703
112,8482.571083,1671623711.72,555,166457,105726
112,8482.571083,1671623711.72,555,166457,105726
113,8482.5863324,1671623711.72,558,166487,105732
113,8482.5863324,1671623711.72,558,166487,105732
114,8482.602323416668,1671623711.816,559,166558,105735
114,8482.602323416668,1671623711.816,559,166558,105735
115,8482.618314433334,1671623711.816,559,166533,105756
115,8482.618314433334,1671623711.816,559,166533,105756
116,8482.63430545,1671623711.816,559,166565,105732
116,8482.63430545,1671623711.816,559,166565,105732
117,8482.650296466667,1671623711.816,558,166584,105767
117,8482.650296466667,1671623711.816,558,166584,105767
118,8482.666287483335,1671623711.816,555,166512,105761
118,8482.666287483335,1671623711.816,555,166512,105761
119,8482.6822785,1671623711.816,556,166532,105758
119,8482.6822785,1671623711.816,556,166532,105758
120,8482.697882,1671623711.909,555,166602,105776
120,8482.697882,1671623711.909,555,166602,105776
121,8482.7134855,1671623711.909,558,166560,105761
121,8482.7134855,1671623711.909,558,166560,105761
122,8482.729089,1671623711.909,558,166559,105798
122,8482.729089,1671623711.909,558,166559,105798
123,8482.7446925,1671623711.909,560,166574,105771
123,8482.7446925,1671623711.909,560,166574,105771
124,8482.760296,1671623711.909,557,166469,105778
124,8482.760296,1671623711.909,557,166469,105778
125,8482.7758995,1671623711.909,557,166525,105762
125,8482.7758995,1671623711.909,557,166525,105762
126,8482.79115555,1671623712.001,557,166510,105797
126,8482.79115555,1671623712.001,557,166510,105797
127,8482.8064116,1671623712.001,557,166545,105828
127,8482.8064116,1671623712.001,557,166545,105828
128,8482.821667650001,1671623712.001,557,166600,105851
128,8482.821667650001,1671623712.001,557,166600,105851
129,8482.8369237,1671623712.001,558,166603,105888
129,8482.8369237,1671623712.001,558,166603,105888
130,8482.85217975,1671623712.001,560,166686,105932
130,8482.85217975,1671623712.001,560,166686,105932
131,8482.8674358,1671623712.001,560,166738,105943
131,8482.8674358,1671623712.001,560,166738,105943
132,8482.882853366667,1671623712.093,559,166665,105936
132,8482.882853366667,1671623712.093,559,166665,105936
133,8482.898270933334,1671623712.093,559,166754,105947
133,8482.898270933334,1671623712.093,559,166754,105947
134,8482.9136885,1671623712.093,557,166764,106050
134,8482.9136885,1671623712.093,557,166764,106050
135,8482.929106066667,1671623712.093,556,166817,106074
135,8482.929106066667,1671623712.093,556,166817,106074
136,8482.944523633334,1671623712.093,558,166892,106089
136,8482.944523633334,1671623712.093,558,166892,106089
137,8482.9599412,1671623712.093,558,166807,106040
137,8482.9599412,1671623712.093,558,166807,106040
138,8482.999683933334,1671623712.332,560,166824,106029
138,8482.999683933334,1671623712.332,560,166824,106029
139,8483.039426666666,1671623712.332,562,166757,106016
139,8483.039426666666,1671623712.332,562,166757,106016
140,8483.0791694,1671623712.332,561,166860,106019
140,8483.0791694,1671623712.332,561,166860,106019
141,8483.118912133334,1671623712.332,559,166833,106006
141,8483.118912133334,1671623712.332,559,166833,106006
142,8483.158654866666,1671623712.332,557,166749,106009
142,8483.158654866666,1671623712.332,557,166749,106009
143,8483.1983976,1671623712.332,558,166905,106006
143,8483.1983976,1671623712.332,558,166905,106006
144,8483.200159433332,1671623712.343,557,166807,105929
144,8483.200159433332,1671623712.343,557,166807,105929
145,8483.201921266666,1671623712.343,558,166783,105904
145,8483.201921266666,1671623712.343,558,166783,105904
146,8483.2036831,1671623712.343,562,166919,105904
146,8483.2036831,1671623712.343,562,166919,105904
147,8483.205444933334,1671623712.343,561,166824,105916
147,8483.205444933334,1671623712.343,561,166824,105916
148,8483.207206766667,1671623712.343,560,166908,105949
148,8483.207206766667,1671623712.343,560,166908,105949
149,8483.2089686,1671623712.343,560,166833,105973
149,8483.2089686,1671623712.343,560,166833,105973
150,8483.214473566666,1671623712.376,558,166912,105971
150,8483.214473566666,1671623712.376,558,166912,105971
151,8483.219978533334,1671623712.376,557,166877,106002
151,8483.219978533334,1671623712.376,557,166877,106002
152,8483.2254835,1671623712.376,557,166910,105939
152,8483.2254835,1671623712.376,557,166910,105939
153,8483.230988466667,1671623712.376,560,166716,105928
153,8483.230988466667,1671623712.376,560,166716,105928
154,8483.236493433335,1671623712.376,560,166756,105929
154,8483.236493433335,1671623712.376,560,166756,105929
155,8483.2419984,1671623712.376,560,166775,105942
155,8483.2419984,1671623712.376,560,166775,105942
156,8483.257349166666,1671623712.468,560,166766,105930
156,8483.257349166666,1671623712.468,560,166766,105930
157,8483.272699933334,1671623712.468,559,166662,105915
157,8483.272699933334,1671623712.468,559,166662,105915
158,8483.2880507,1671623712.468,556,166724,105917
158,8483.2880507,1671623712.468,556,166724,105917
159,8483.303401466666,1671623712.468,558,166766,105882
159,8483.303401466666,1671623712.468,558,166766,105882
160,8483.318752233332,1671623712.468,556,166664,105841
160,8483.318752233332,1671623712.468,556,166664,105841
161,8483.334103,1671623712.468,557,166685,105806
161,8483.334103,1671623712.468,557,166685,105806
162,8483.3507531,1671623712.568,560,166781,105756
162,8483.3507531,1671623712.568,560,166781,105756
163,8483.3674032,1671623712.568,560,166625,105733
163,8483.3674032,1671623712.568,560,166625,105733
164,8483.3840533,1671623712.568,561,166756,105685
164,8483.3840533,1671623712.568,561,166756,105685
165,8483.400703399999,1671623712.568,559,166675,105634
165,8483.400703399999,1671623712.568,559,166675,105634
166,8483.417353499999,1671623712.568,559,166649,105608
166,8483.417353499999,1671623712.568,559,166649,105608
167,8483.4340036,1671623712.568,559,166659,105624
167,8483.4340036,1671623712.568,559,166659,105624
168,8483.450788816666,1671623712.668,558,166624,105654
168,8483.450788816666,1671623712.668,558,166624,105654
169,8483.467574033333,1671623712.668,560,166623,105591
169,8483.467574033333,1671623712.668,560,166623,105591
170,8483.48435925,1671623712.668,562,166531,105302
170,8483.48435925,1671623712.668,562,166531,105302
171,8483.501144466667,1671623712.668,565,166454,104788
171,8483.501144466667,1671623712.668,565,166454,104788
172,8483.517929683334,1671623712.668,566,166222,104320
172,8483.517929683334,1671623712.668,566,166222,104320
173,8483.5347149,1671623712.668,563,166197,104138
173,8483.5347149,1671623712.668,563,166197,104138
174,8483.550574933333,1671623712.763,563,166203,104402
174,8483.550574933333,1671623712.763,563,166203,104402
175,8483.566434966668,1671623712.763,560,166355,104586
175,8483.566434966668,1671623712.763,560,166355,104586
176,8483.582295,1671623712.763,560,166203,104469
176,8483.582295,1671623712.763,560,166203,104469
177,8483.598155033333,1671623712.763,563,166066,104311
177,8483.598155033333,1671623712.763,563,166066,104311
178,8483.614015066667,1671623712.763,561,165884,104157
178,8483.614015066667,1671623712.763,561,165884,104157
179,8483.6298751,1671623712.763,562,165758,103919
179,8483.6298751,1671623712.763,562,165758,103919
180,8483.646031983333,1671623712.86,562,165576,103662
180,8483.646031983333,1671623712.86,562,165576,103662
181,8483.662188866667,1671623712.86,560,165451,103408
181,8483.662188866667,1671623712.86,560,165451,103408
182,8483.678345749999,1671623712.86,559,165367,103221
182,8483.678345749999,1671623712.86,559,165367,103221
183,8483.694502633332,1671623712.86,559,165300,103109
183,8483.694502633332,1671623712.86,559,165300,103109
184,8483.710659516666,1671623712.86,557,165230,103010
184,8483.710659516666,1671623712.86,557,165230,103010
185,8483.7268164,1671623712.86,559,165184,102886
185,8483.7268164,1671623712.86,559,165184,102886
186,8483.74043845,1671623712.942,559,165087,102809
186,8483.74043845,1671623712.942,559,165087,102809
187,8483.7540605,1671623712.942,560,165068,102771
187,8483.7540605,1671623712.942,560,165068,102771
188,8483.76768255,1671623712.942,558,164931,102674
188,8483.76768255,1671623712.942,558,164931,102674
189,8483.781304600001,1671623712.942,556,165027,102530
189,8483.781304600001,1671623712.942,556,165027,102530
190,8483.79492665,1671623712.942,554,164802,102215
190,8483.79492665,1671623712.942,554,164802,102215
191,8483.8085487,1671623712.942,556,164758,101856
191,8483.8085487,1671623712.942,556,164758,101856
192,8483.822840366667,1671623713.028,558,164707,101736
192,8483.822840366667,1671623713.028,558,164707,101736
193,8483.837132033334,1671623713.028,559,164597,101618
193,8483.837132033334,1671623713.028,559,164597,101618
194,8483.8514237,1671623713.028,560,164365,101543
194,8483.8514237,1671623713.028,560,164365,101543
195,8483.865715366666,1671623713.028,560,164320,101416
195,8483.865715366666,1671623713.028,560,164320,101416
196,8483.880007033333,1671623713.028,559,164293,101248
196,8483.880007033333,1671623713.028,559,164293,101248
197,8483.8942987,1671623713.028,558,164126,101149
197,8483.8942987,1671623713.028,558,164126,101149
198,8483.913014,1671623713.14,555,163996,101063
198,8483.913014,1671623713.14,555,163996,101063
199,8483.931729299999,1671623713.14,554,163921,100998
199,8483.931729299999,1671623713.14,554,163921,100998
200,8483.9504446,1671623713.14,554,163697,100936
200,8483.9504446,1671623713.14,554,163697,100936
201,8483.9691599,1671623713.14,556,163662,100888
201,8483.9691599,1671623713.14,556,163662,100888
202,8483.987875199999,1671623713.14,556,163585,100857
202,8483.987875199999,1671623713.14,556,163585,100857
203,8484.0065905,1671623713.14,558,163536,100839
203,8484.0065905,1671623713.14,558,163536,100839
204,8484.023897416666,1671623713.244,556,163492,100867
204,8484.023897416666,1671623713.244,556,163492,100867
205,8484.041204333333,1671623713.244,555,163518,100878
205,8484.041204333333,1671623713.244,555,163518,100878
206,8484.05851125,1671623713.244,553,163395,100884
206,8484.05851125,1671623713.244,553,163395,100884
207,8484.075818166666,1671623713.244,551,163477,100873
207,8484.075818166666,1671623713.244,551,163477,100873
208,8484.093125083333,1671623713.244,552,163405,100728
208,8484.093125083333,1671623713.244,552,163405,100728
209,8484.110432,1671623713.244,553,163356,100673
209,8484.110432,1671623713.244,553,163356,100673
210,8484.122989516665,1671623713.319,554,163357,100653
210,8484.122989516665,1671623713.319,554,163357,100653
211,8484.135547033333,1671623713.319,552,163386,100683
211,8484.135547033333,1671623713.319,552,163386,100683
212,8484.14810455,1671623713.319,554,163498,100784
212,8484.14810455,1671623713.319,554,163498,100784
213,8484.160662066666,1671623713.319,551,163563,100853
213,8484.160662066666,1671623713.319,551,163563,100853
214,8484.173219583332,1671623713.319,551,163619,101004
214,8484.173219583332,1671623713.319,551,163619,101004
215,8484.1857771,1671623713.319,554,163630,101159
215,8484.1857771,1671623713.319,554,163630,101159
216,8484.199983633333,1671623713.405,554,163747,101306
216,8484.199983633333,1671623713.405,554,163747,101306
217,8484.214190166666,1671623713.405,553,163822,101479
217,8484.214190166666,1671623713.405,553,163822,101479
218,8484.2283967,1671623713.405,557,163938,101579
218,8484.2283967,1671623713.405,557,163938,101579
219,8484.242603233333,1671623713.405,556,164024,101688
219,8484.242603233333,1671623713.405,556,164024,101688
220,8484.256809766666,1671623713.405,556,164069,101719
220,8484.256809766666,1671623713.405,556,164069,101719
221,8484.2710163,1671623713.405,555,164023,101813
221,8484.2710163,1671623713.405,555,164023,101813
222,8484.291953866667,1671623713.53,555,164130,101826
222,8484.291953866667,1671623713.53,555,164130,101826
223,8484.312891433332,1671623713.53,553,164131,101871
223,8484.312891433332,1671623713.53,553,164131,101871
224,8484.333829,1671623713.53,554,164180,101955
224,8484.333829,1671623713.53,554,164180,101955
225,8484.354766566667,1671623713.53,556,164291,102029
225,8484.354766566667,1671623713.53,556,164291,102029
226,8484.375704133332,1671623713.53,557,164267,102043
226,8484.375704133332,1671623713.53,557,164267,102043
227,8484.3966417,1671623713.53,554,164291,102077
227,8484.3966417,1671623713.53,554,164291,102077
228,8484.41422345,1671623713.636,557,164359,102140
228,8484.41422345,1671623713.636,557,164359,102140
229,8484.4318052,1671623713.636,553,164431,102194
229,8484.4318052,1671623713.636,553,164431,102194
230,8484.44938695,1671623713.636,552,164429,102227
230,8484.44938695,1671623713.636,552,164429,102227
231,8484.466968699999,1671623713.636,552,164407,102252
231,8484.466968699999,1671623713.636,552,164407,102252
232,8484.484550449999,1671623713.636,554,164516,102294
232,8484.484550449999,1671623713.636,554,164516,102294
233,8484.5021322,1671623713.636,556,164531,102253
233,8484.5021322,1671623713.636,556,164531,102253
234,8484.516425816666,1671623713.721,558,164516,102213
234,8484.516425816666,1671623713.721,558,164516,102213
235,8484.530719433333,1671623713.721,556,164522,102165
235,8484.530719433333,1671623713.721,556,164522,102165
236,8484.54501305,1671623713.721,554,164532,102145
236,8484.54501305,1671623713.721,554,164532,102145
237,8484.559306666666,1671623713.721,554,164498,102136
237,8484.559306666666,1671623713.721,554,164498,102136
238,8484.573600283333,1671623713.721,554,164490,102120
238,8484.573600283333,1671623713.721,554,164490,102120
239,8484.5878939,1671623713.721,553,164441,102065
239,8484.5878939,1671623713.721,553,164441,102065
240,8484.597280183332,1671623713.778,554,164480,101999
240,8484.597280183332,1671623713.778,554,164480,101999
241,8484.606666466667,1671623713.778,554,164481,101959
241,8484.606666466667,1671623713.778,554,164481,101959
242,8484.61605275,1671623713.778,555,164359,101932
242,8484.61605275,1671623713.778,555,164359,101932
243,8484.625439033332,1671623713.778,553,164456,101841
243,8484.625439033332,1671623713.778,553,164456,101841
244,8484.634825316667,1671623713.778,554,164307,101811
244,8484.634825316667,1671623713.778,554,164307,101811
245,8484.6442116,1671623713.778,550,164304,101801
245,8484.6442116,1671623713.778,550,164304,101801
246,8484.661171983333,1671623713.88,551,164293,101746
246,8484.661171983333,1671623713.88,551,164293,101746
247,8484.678132366667,1671623713.88,552,164283,101763
247,8484.678132366667,1671623713.88,552,164283,101763
248,8484.69509275,1671623713.88,551,164172,101753
248,8484.69509275,1671623713.88,551,164172,101753
249,8484.712053133333,1671623713.88,553,164331,101759
249,8484.712053133333,1671623713.88,553,164331,101759
250,8484.721930655709,1671623713.88,555,164200,101732
250,8484.729669167784,1671623713.88,555,164200,101732
251,8484.737407679859,1671623713.88,553,164311,101744
251,8484.745146191934,1671623713.88,553,164311,101744
252,8484.752884704008,1671623713.971,555,164220,101728
252,8484.760623216083,1671623713.971,555,164220,101728
253,8484.768361728158,1671623713.971,551,164219,101729
253,8484.776100240233,1671623713.971,551,164219,101729
254,8484.783838752308,1671623713.971,551,164220,101763
254,8484.791577264383,1671623713.971,551,164220,101763
255,8484.799315776458,1671623713.971,551,164253,101759
255,8484.807054288533,1671623713.971,551,164253,101759
256,8484.814792800607,1671623713.971,552,164230,101757
256,8484.822531312682,1671623713.971,552,164230,101757
257,8484.830269824757,1671623713.971,552,164202,101763
257,8484.838008336832,1671623713.971,552,164202,101763
258,8484.845746848907,1671623714.067,554,164234,101763
258,8484.853485360982,1671623714.067,554,164234,101763
259,8484.861223873057,1671623714.067,552,164147,101758
259,8484.868962385131,1671623714.067,552,164147,101758
260,8484.87896992886,1671623714.067,553,164211,101738
260,8484.886342722131,1671623714.067,553,164211,101738
261,8484.893715515402,1671623714.067,552,164236,101747
261,8484.901088308672,1671623714.067,552,164236,101747
262,8484.908461101943,1671623714.067,552,164275,101790
262,8484.915833895213,1671623714.067,552,164275,101790
263,8484.923206688483,1671623714.067,552,164195,101807
263,8484.930579481754,1671623714.067,552,164195,101807
264,8484.937952275024,1671623714.162,553,164325,101824
264,8484.945325068295,1671623714.162,553,164325,101824
265,8484.952697861565,1671623714.162,552,164328,101857
265,8484.960070654835,1671623714.162,552,164328,101857
266,8484.967443448106,1671623714.162,554,164157,101839
266,8484.974816241376,1671623714.162,554,164157,101839
267,8484.982189034647,1671623714.162,551,164276,101879
267,8484.989561827917,1671623714.162,551,164276,101879
268,8484.996934621187,1671623714.162,553,164416,101905
268,8485.004307414458,1671623714.162,553,164416,101905
269,8485.011680207728,1671623714.162,550,164349,101949
269,8485.019053000999,1671623714.162,550,164349,101949
270,8485.038583924152,1671623714.256,551,164391,101986
270,8485.04606441694,1671623714.256,551,164391,101986
271,8485.053544909728,1671623714.256,549,164400,101988
271,8485.061025402516,1671623714.256,549,164400,101988
272,8485.068505895304,1671623714.256,550,164408,101975
272,8485.075986388092,1671623714.256,550,164408,101975
273,8485.08346688088,1671623714.256,552,164503,101967
273,8485.090947373668,1671623714.256,552,164503,101967
274,8485.098427866456,1671623714.256,554,164447,101999
274,8485.105908359244,1671623714.256,554,164447,101999
275,8485.113388852033,1671623714.256,552,164518,102019
275,8485.12086934482,1671623714.256,552,164518,102019
276,8485.128349837609,1671623714.367,553,164480,102034
276,8485.135830330397,1671623714.367,553,164480,102034
277,8485.143310823185,1671623714.367,549,164530,102053
277,8485.150791315973,1671623714.367,549,164530,102053
278,8485.158271808761,1671623714.367,549,164512,102008
278,8485.16575230155,1671623714.367,549,164512,102008
279,8485.173232794337,1671623714.367,550,164606,101979
279,8485.180713287125,1671623714.367,550,164606,101979
280,8485.207190342042,1671623714.367,550,164491,101981
280,8485.215783397278,1671623714.367,550,164491,101981
281,8485.224376452514,1671623714.367,554,164611,101976
281,8485.23296950775,1671623714.367,554,164611,101976
282,8485.241562562986,1671623714.444,553,164608,102005
282,8485.250155618221,1671623714.444,553,164608,102005
283,8485.258748673457,1671623714.444,553,164530,101985
283,8485.267341728693,1671623714.444,553,164530,101985
284,8485.27593478393,1671623714.444,552,164633,101956
284,8485.284527839165,1671623714.444,552,164633,101956
285,8485.293120894401,1671623714.444,550,164642,102002
285,8485.301713949637,1671623714.444,550,164642,102002
286,8485.310307004873,1671623714.444,549,164684,101970
286,8485.318900060109,1671623714.444,549,164684,101970
287,8485.327493115345,1671623714.444,550,164634,101982
287,8485.33608617058,1671623714.444,550,164634,101982
288,8485.344679225816,1671623714.555,551,164608,102034
288,8485.353272281052,1671623714.555,551,164608,102034
289,8485.361865336288,1671623714.555,552,164696,102084
289,8485.370458391524,1671623714.555,552,164696,102084
290,8485.357219385654,1671623714.555,553,164643,102059
290,8485.36508741017,1671623714.555,553,164643,102059
291,8485.372955434685,1671623714.555,551,164596,102063
291,8485.3808234592,1671623714.555,551,164596,102063
292,8485.388691483715,1671623714.555,551,164573,102031
292,8485.39655950823,1671623714.555,551,164573,102031
293,8485.404427532745,1671623714.555,550,164527,102009
293,8485.41229555726,1671623714.555,550,164527,102009
294,8485.420163581775,1671623714.64,550,164587,101999
294,8485.42803160629,1671623714.64,550,164587,101999
295,8485.435899630806,1671623714.64,549,164501,102021
295,8485.44376765532,1671623714.64,549,164501,102021
296,8485.451635679836,1671623714.64,549,164603,102032
296,8485.459503704351,1671623714.64,549,164603,102032
297,8485.467371728866,1671623714.64,551,164537,102009
297,8485.475239753381,1671623714.64,551,164537,102009
298,8485.483107777896,1671623714.64,552,164523,102051
298,8485.490975802411,1671623714.64,552,164523,102051
299,8485.498843826927,1671623714.64,551,164636,102035
299,8485.506711851442,1671623714.64,551,164636,102035
300,8485.51492889907,1671623714.718,551,164614,102038
300,8485.52160499146,1671623714.718,551,164614,102038
301,8485.528281083849,1671623714.718,547,164654,102067
301,8485.534957176238,1671623714.718,547,164654,102067
302,8485.541633268627,1671623714.718,550,164654,102075
302,8485.548309361016,1671623714.718,550,164654,102075
303,8485.554985453406,1671623714.718,550,164646,102071
303,8485.561661545795,1671623714.718,550,164646,102071
304,8485.568337638184,1671623714.718,551,164664,102107
304,8485.575013730573,1671623714.718,551,164664,102107
305,8485.581689822962,1671623714.718,553,164655,102070
305,8485.588365915351,1671623714.718,553,164655,102070
306,8485.59504200774,1671623714.816,553,164648,102066
306,8485.60171810013,1671623714.816,553,164648,102066
307,8485.608394192519,1671623714.816,552,164649,102072
307,8485.615070284908,1671623714.816,552,164649,102072
308,8485.621746377297,1671623714.816,550,164681,102064
308,8485.628422469686,1671623714.816,550,164681,102064
309,8485.635098562076,1671623714.816,550,164600,102085
309,8485.641774654465,1671623714.816,550,164600,102085
310,8485.6594016133,1671623714.816,549,164672,102073
310,8485.666996847747,1671623714.816,549,164672,102073
311,8485.674592082194,1671623714.816,548,164725,102101
311,8485.682187316641,1671623714.816,548,164725,102101
312,8485.689782551088,1671623714.907,549,164682,102079
312,8485.697377785535,1671623714.907,549,164682,102079
313,8485.704973019981,1671623714.907,552,164684,102101
313,8485.712568254428,1671623714.907,552,164684,102101
314,8485.720163488875,1671623714.907,551,164738,102124
314,8485.727758723322,1671623714.907,551,164738,102124
315,8485.735353957769,1671623714.907,552,164842,102130
315,8485.742949192216,1671623714.907,552,164842,102130
316,8485.750544426663,1671623714.907,550,164697,102115
316,8485.75813966111,1671623714.907,550,164697,102115
317,8485.765734895556,1671623714.907,549,164876,102155
317,8485.773330130003,1671623714.907,549,164876,102155
318,8485.78092536445,1671623715.002,548,164777,102157
318,8485.788520598897,1671623715.002,548,164777,102157
319,8485.796115833344,1671623715.002,548,164830,102183
319,8485.80371106779,1671623715.002,548,164830,102183
320,8485.814513182348,1671623715.002,550,164772,102158
320,8485.821820371855,1671623715.002,550,164772,102158
321,8485.829127561363,1671623715.002,551,164815,102148
321,8485.83643475087,1671623715.002,551,164815,102148
322,8485.843741940378,1671623715.002,550,164786,102142
322,8485.851049129886,1671623715.002,550,164786,102142
323,8485.858356319393,1671623715.002,550,164901,102187
323,8485.865663508901,1671623715.002,550,164901,102187
324,8485.872970698409,1671623715.099,550,164852,102236
324,8485.880277887916,1671623715.099,550,164852,102236
325,8485.887585077424,1671623715.099,547,164900,102204
325,8485.894892266931,1671623715.099,547,164900,102204
326,8485.90219945644,1671623715.099,546,164839,102194
326,8485.909506645947,1671623715.099,546,164839,102194
327,8485.916813835454,1671623715.099,550,164891,102171
327,8485.924121024962,1671623715.099,550,164891,102171
328,8485.93142821447,1671623715.099,548,164899,102183
328,8485.938735403977,1671623715.099,548,164899,102183
329,8485.946042593485,1671623715.099,551,164883,102197
329,8485.953349782993,1671623715.099,551,164883,102197
330,8485.97554427078,1671623715.187,551,164888,102174
330,8485.983163704203,1671623715.187,551,164888,102174
331,8485.990783137626,1671623715.187,550,164861,102191
331,8485.99840257105,1671623715.187,550,164861,102191
332,8486.006022004472,1671623715.187,549,164805,102190
332,8486.013641437896,1671623715.187,549,164805,102190
333,8486.02126087132,1671623715.187,550,164863,102153
333,8486.028880304742,1671623715.187,550,164863,102153
334,8486.036499738166,1671623715.187,550,164849,102195
334,8486.044119171589,1671623715.187,550,164849,102195
335,8486.051738605012,1671623715.187,548,164712,102223
335,8486.059358038436,1671623715.187,548,164712,102223
336,8486.066977471859,1671623715.286,551,164863,102189
336,8486.074596905282,1671623715.286,551,164863,102189
337,8486.082216338706,1671623715.286,552,164786,102205
337,8486.089835772129,1671623715.286,552,164786,102205
338,8486.097455205552,1671623715.286,551,164859,102210
338,8486.105074638976,1671623715.286,551,164859,102210
339,8486.112694072399,1671623715.286,551,164827,102211
339,8486.120313505822,1671623715.286,551,164827,102211
340,8486.129468070709,1671623715.286,550,164852,102180
340,8486.137183702207,1671623715.286,550,164852,102180
341,8486.144899333705,1671623715.286,549,164826,102185
341,8486.152614965204,1671623715.286,549,164826,102185
342,8486.160330596702,1671623715.381,549,164831,102146
342,8486.1680462282,1671623715.381,549,164831,102146
343,8486.175761859698,1671623715.381,550,164831,102160
343,8486.183477491197,1671623715.381,550,164831,102160
344,8486.191193122695,1671623715.381,550,164824,102132
344,8486.198908754193,1671623715.381,550,164824,102132
345,8486.206624385692,1671623715.381,552,164800,102089
345,8486.21434001719,1671623715.381,552,164800,102089
346,8486.222055648688,1671623715.381,551,164767,102091
346,8486.229771280186,1671623715.381,551,164767,102091
347,8486.237486911685,1671623715.381,551,164754,102094
347,8486.245202543183,1671623715.381,551,164754,102094
348,8486.252918174681,1671623715.479,549,164791,102056
348,8486.26063380618,1671623715.479,549,164791,102056
349,8486.268349437678,1671623715.479,548,164735,102084
349,8486.276065069176,1671623715.479,548,164735,102084
350,8486.289701790727,1671623715.479,549,164829,102094
350,8486.297268636494,1671623715.479,549,164829,102094
351,8486.30483548226,1671623715.479,550,164705,102052
351,8486.312402328027,1671623715.479,550,164705,102052
352,8486.319969173794,1671623715.479,549,164747,102030
352,8486.32753601956,1671623715.479,549,164747,102030
353,8486.335102865327,1671623715.479,554,164777,102021
353,8486.342669711094,1671623715.479,554,164777,102021
354,8486.35023655686,1671623715.559,553,164756,102003
354,8486.357803402627,1671623715.559,553,164756,102003
355,8486.365370248393,1671623715.559,551,164672,102043
355,8486.37293709416,1671623715.559,551,164672,102043
356,8486.380503939927,1671623715.559,551,164867,102095
356,8486.388070785693,1671623715.559,551,164867,102095
357,8486.39563763146,1671623715.559,550,164819,102105
357,8486.403204477227,1671623715.559,550,164819,102105
358,8486.410771322993,1671623715.559,548,164763,102062
358,8486.41833816876,1671623715.559,548,164763,102062
359,8486.425905014527,1671623715.559,550,164743,101995
359,8486.433471860293,1671623715.559,550,164743,101995
360,8486.433526602135,1671623715.761,552,164866,102041
360,8486.439811374203,1671623715.761,552,164866,102041
361,8486.44609614627,1671623715.761,553,164683,102010
361,8486.452380918337,1671623715.761,553,164683,102010
362,8486.458665690405,1671623715.761,551,164848,102023
362,8486.464950462472,1671623715.761,551,164848,102023
363,8486.47123523454,1671623715.761,552,164784,102006
363,8486.477520006607,1671623715.761,552,164784,102006
364,8486.483804778674,1671623715.761,550,164854,102039
364,8486.490089550742,1671623715.761,550,164854,102039
365,8486.496374322809,1671623715.761,550,164776,102025
365,8486.502659094876,1671623715.761,550,164776,102025
366,8486.508943866944,1671623715.768,549,164817,102044
366,8486.515228639011,1671623715.768,549,164817,102044
367,8486.521513411079,1671623715.768,549,164799,102014
367,8486.527798183146,1671623715.768,549,164799,102014
368,8486.534082955213,1671623715.768,551,164807,102008
368,8486.54036772728,1671623715.768,551,164807,102008
369,8486.546652499348,1671623715.768,552,164853,102010
369,8486.552937271415,1671623715.768,552,164853,102010
370,8486.63466827485,1671623715.768,551,164825,102005
370,8486.636093480889,1671623715.768,551,164825,102005
371,8486.637518686928,1671623715.768,551,164850,101990
371,8486.638943892967,1671623715.768,551,164850,101990
372,8486.640369099006,1671623715.856,548,164810,101951
372,8486.641794305046,1671623715.856,548,164810,101951
373,8486.643219511085,1671623715.856,549,164740,101970
373,8486.644644717124,1671623715.856,549,164740,101970
374,8486.646069923163,1671623715.856,549,164770,101943
374,8486.647495129202,1671623715.856,549,164770,101943
375,8486.648920335241,1671623715.856,549,164743,101920
375,8486.65034554128,1671623715.856,549,164743,101920
376,8486.65177074732,1671623715.856,552,164721,101942
376,8486.653195953359,1671623715.856,552,164721,101942
377,8486.654621159398,1671623715.856,552,164707,101936
377,8486.656046365437,1671623715.856,552,164707,101936
378,8486.657471571476,1671623715.949,551,164666,101959
378,8486.658896777515,1671623715.949,551,164666,101959
379,8486.660321983554,1671623715.949,549,164655,101907
379,8486.661747189593,1671623715.949,549,164655,101907
380,8486.762186727196,1671623715.949,549,164748,101946
380,8486.76932275524,1671623715.949,549,164748,101946
381,8486.776458783286,1671623715.949,550,164648,101934
381,8486.783594811332,1671623715.949,550,164648,101934
382,8486.790730839377,1671623715.949,549,164749,101941
382,8486.797866867422,1671623715.949,549,164749,101941
383,8486.805002895468,1671623715.949,549,164616,101886
383,8486.812138923513,1671623715.949,549,164616,101886
384,8486.819274951558,1671623716.041,550,164649,101900
384,8486.826410979604,1671623716.041,550,164649,101900
385,8486.833547007649,1671623716.041,551,164628,101911
385,8486.840683035694,1671623716.041,551,164628,101911
386,8486.84781906374,1671623716.041,552,164641,101863
386,8486.854955091785,1671623716.041,552,164641,101863
387,8486.86209111983,1671623716.041,550,164615,101855
387,8486.869227147876,1671623716.041,550,164615,101855
388,8486.876363175921,1671623716.041,548,164652,101877
388,8486.883499203966,1671623716.041,548,164652,101877
389,8486.890635232012,1671623716.041,548,164674,101920
389,8486.897771260057,1671623716.041,548,164674,101920
390,8486.916171751382,1671623716.127,548,164733,101899
390,8486.923345994159,1671623716.127,548,164733,101899
391,8486.930520236936,1671623716.127,550,164586,101905
391,8486.937694479713,1671623716.127,550,164586,101905
392,8486.94486872249,1671623716.127,551,164669,101912
392,8486.952042965268,1671623716.127,551,164669,101912
393,8486.959217208045,1671623716.127,551,164619,101857
393,8486.966391450822,1671623716.127,551,164619,101857
394,8486.973565693599,1671623716.127,551,164636,101870
394,8486.980739936376,1671623716.127,551,164636,101870
395,8486.987914179153,1671623716.127,551,164545,101867
395,8486.99508842193,1671623716.127,551,164545,101867
396,8487.002262664708,1671623716.222,549,164685,101888
396,8487.009436907485,1671623716.222,549,164685,101888
397,8487.016611150262,1671623716.222,550,164604,101881
397,8487.02378539304,1671623716.222,550,164604,101881
398,8487.030959635817,1671623716.222,549,164660,101869
398,8487.038133878594,1671623716.222,549,164660,101869
399,8487.04530812137,1671623716.222,550,164683,101918
399,8487.052482364148,1671623716.222,550,164683,101918
400,8487.066022081908,1671623716.222,553,164565,101887
400,8487.073361672805,1671623716.222,553,164565,101887
401,8487.080701263701,1671623716.222,554,164571,101887
401,8487.088040854598,1671623716.222,554,164571,101887
402,8487.095380445495,1671623716.312,552,164677,101912
402,8487.102720036391,1671623716.312,552,164677,101912
403,8487.110059627288,1671623716.312,550,164775,101916
403,8487.117399218185,1671623716.312,550,164775,101916
404,8487.124738809081,1671623716.312,550,164639,101880
404,8487.132078399978,1671623716.312,550,164639,101880
405,8487.139417990875,1671623716.312,550,164715,101907
405,8487.146757581771,1671623716.312,550,164715,101907
406,8487.154097172668,1671623716.312,548,164698,101923
406,8487.161436763565,1671623716.312,548,164698,101923
407,8487.168776354461,1671623716.312,551,164695,101894
407,8487.176115945358,1671623716.312,551,164695,101894
408,8487.183455536255,1671623716.41,551,164687,101886
408,8487.190795127151,1671623716.41,551,164687,101886
409,8487.198134718048,1671623716.41,553,164613,101894
409,8487.205474308945,1671623716.41,553,164613,101894
410,8487.22060586325,1671623716.41,549,164706,101894
410,8487.228118294817,1671623716.41,549,164706,101894
411,8487.235630726385,1671623716.41,551,164726,101874
411,8487.243143157953,1671623716.41,551,164726,101874
412,8487.250655589522,1671623716.41,549,164724,101869
412,8487.25816802109,1671623716.41,549,164724,101869
413,8487.265680452658,1671623716.41,550,164719,101878
413,8487.273192884226,1671623716.41,550,164719,101878
414,8487.280705315794,1671623716.507,549,164696,101836
414,8487.288217747362,1671623716.507,549,164696,101836
415,8487.29573017893,1671623716.507,550,164677,101856
415,8487.303242610498,1671623716.507,550,164677,101856
416,8487.310755042066,1671623716.507,552,164619,101843
416,8487.318267473634,1671623716.507,552,164619,101843
417,8487.325779905203,1671623716.507,552,164602,101817
417,8487.33329233677,1671623716.507,552,164602,101817
418,8487.340804768339,1671623716.507,552,164562,101828
418,8487.348317199907,1671623716.507,552,164562,101828
419,8487.355829631475,1671623716.507,551,164503,101830
419,8487.363342063043,1671623716.507,551,164503,101830
420,8487.382973004824,1671623716.591,550,164519,101795
420,8487.390506886473,1671623716.591,550,164519,101795
421,8487.398040768123,1671623716.591,550,164482,101812
421,8487.405574649772,1671623716.591,550,164482,101812
422,8487.413108531422,1671623716.591,549,164509,101786
422,8487.420642413072,1671623716.591,549,164509,101786
423,8487.428176294721,1671623716.591,551,164462,101787
423,8487.43571017637,1671623716.591,551,164462,101787
424,8487.44324405802,1671623716.591,551,164433,101776
424,8487.45077793967,1671623716.591,551,164433,101776
425,8487.45831182132,1671623716.591,552,164415,101756
425,8487.46584570297,1671623716.591,552,164415,101756
426,8487.473379584619,1671623716.696,551,164492,101786
426,8487.480913466268,1671623716.696,551,164492,101786
427,8487.488447347918,1671623716.696,551,164372,101757
427,8487.495981229567,1671623716.696,551,164372,101757
428,8487.503515111217,1671623716.696,550,164516,101806
428,8487.511048992867,1671623716.696,550,164516,101806
429,8487.518582874516,1671623716.696,548,164420,101791
429,8487.526116756166,1671623716.696,548,164420,101791
430,8487.53809880676,1671623716.696,549,164480,101781
430,8487.546232693036,1671623716.696,549,164480,101781
431,8487.55436657931,1671623716.696,550,164373,101758
431,8487.562500465585,1671623716.696,550,164373,101758
432,8487.57063435186,1671623716.781,552,164389,101774
432,8487.578768238134,1671623716.781,552,164389,101774
433,8487.586902124409,1671623716.781,552,164375,101752
433,8487.595036010684,1671623716.781,552,164375,101752
434,8487.603169896958,1671623716.781,549,164265,101778
434,8487.611303783233,1671623716.781,549,164265,101778
435,8487.619437669508,1671623716.781,550,164431,101779
435,8487.627571555782,1671623716.781,550,164431,101779
436,8487.635705442057,1671623716.781,550,164357,101745
436,8487.643839328332,1671623716.781,550,164357,101745
437,8487.651973214606,1671623716.781,549,164375,101768
437,8487.66010710088,1671623716.781,549,164375,101768
438,8487.668240987156,1671623716.88,548,164354,101762
438,8487.67637487343,1671623716.88,548,164354,101762
439,8487.684508759705,1671623716.88,550,164362,101764
439,8487.69264264598,1671623716.88,550,164362,101764
440,8487.689675760366,1671623716.88,552,164369,101731
440,8487.697068733449,1671623716.88,552,164369,101731
441,8487.704461706531,1671623716.88,551,164323,101738
441,8487.711854679614,1671623716.88,551,164323,101738
442,8487.719247652696,1671623716.88,552,164358,101772
442,8487.726640625779,1671623716.88,552,164358,101772
443,8487.734033598861,1671623716.88,551,164402,101763
443,8487.741426571944,1671623716.88,551,164402,101763
444,8487.748819545026,1671623717.05,549,164331,101769
444,8487.756212518108,1671623717.05,549,164331,101769
445,8487.76360549119,1671623717.05,550,164340,101739
445,8487.770998464273,1671623717.05,550,164340,101739
446,8487.778391437356,1671623717.05,548,164432,101758
446,8487.785784410438,1671623717.05,548,164432,101758
447,8487.79317738352,1671623717.05,551,164389,101718
447,8487.800570356603,1671623717.05,551,164389,101718
448,8487.807963329686,1671623717.05,552,164450,101737
448,8487.815356302768,1671623717.05,552,164450,101737
449,8487.82274927585,1671623717.05,552,164333,101715
449,8487.830142248933,1671623717.05,552,164333,101715
450,8487.934028494028,1671623717.064,553,164326,101737
450,8487.947304568806,1671623717.064,553,164326,101737
451,8487.960580643585,1671623717.064,549,164415,101724
451,8487.973856718363,1671623717.064,549,164415,101724
452,8487.987132793141,1671623717.064,550,164430,101727
452,8488.00040886792,1671623717.064,550,164430,101727
453,8488.013684942698,1671623717.064,549,164366,101755
453,8488.026961017476,1671623717.064,549,164366,101755
454,8488.040237092255,1671623717.064,548,164402,101738
454,8488.053513167033,1671623717.064,548,164402,101738
455,8488.066789241811,1671623717.064,552,164382,101736
455,8488.08006531659,1671623717.064,552,164382,101736
456,8488.093341391368,1671623717.157,552,164412,101718
456,8488.106617466146,1671623717.157,552,164412,101718
457,8488.119893540925,1671623717.157,552,164445,101759
457,8488.133169615703,1671623717.157,552,164445,101759
458,8488.146445690481,1671623717.157,551,164319,101742
458,8488.15972176526,1671623717.157,551,164319,101742
459,8488.172997840038,1671623717.157,551,164448,101741
459,8488.186273914816,1671623717.157,551,164448,101741
460,8488.001292413639,1671623717.157,549,164332,101694
460,8488.008192288578,1671623717.157,549,164332,101694
461,8488.015092163518,1671623717.157,548,164335,101700
461,8488.021992038457,1671623717.157,548,164335,101700
462,8488.028891913396,1671623717.263,550,164301,101650
462,8488.035791788336,1671623717.263,550,164301,101650
463,8488.042691663275,1671623717.263,550,164207,101650
463,8488.049591538214,1671623717.263,550,164207,101650
464,8488.056491413154,1671623717.263,551,164173,101639
464,8488.063391288093,1671623717.263,551,164173,101639
465,8488.070291163032,1671623717.263,552,164226,101650
465,8488.077191037972,1671623717.263,552,164226,101650
466,8488.084090912911,1671623717.263,552,164160,101630
466,8488.09099078785,1671623717.263,552,164160,101630
467,8488.09789066279,1671623717.263,550,164126,101609
467,8488.104790537729,1671623717.263,550,164126,101609
468,8488.111690412668,1671623717.348,550,164124,101592
468,8488.118590287608,1671623717.348,550,164124,101592
469,8488.125490162547,1671623717.348,550,164119,101601
469,8488.132390037486,1671623717.348,550,164119,101601
470,8488.167594144492,1671623717.348,551,164131,101604
470,8488.174697215552,1671623717.348,551,164131,101604
471,8488.181800286613,1671623717.348,550,164113,101584
471,8488.188903357674,1671623717.348,550,164113,101584
472,8488.196006428734,1671623717.348,554,164121,101594
472,8488.203109499795,1671623717.348,554,164121,101594
473,8488.210212570855,1671623717.348,553,164103,101578
473,8488.217315641916,1671623717.348,553,164103,101578
474,8488.224418712976,1671623717.448,552,164040,101576
474,8488.231521784037,1671623717.448,552,164040,101576
475,8488.238624855097,1671623717.448,551,163989,101560
475,8488.245727926158,1671623717.448,551,163989,101560
476,8488.252830997219,1671623717.448,550,164074,101566
476,8488.25993406828,1671623717.448,550,164074,101566
477,8488.26703713934,1671623717.448,549,164042,101541
477,8488.2741402104,1671623717.448,549,164042,101541
478,8488.28124328146,1671623717.448,549,163938,101521
478,8488.288346352521,1671623717.448,549,163938,101521
479,8488.295449423582,1671623717.448,550,163890,101518
479,8488.302552494642,1671623717.448,550,163890,101518
480,8488.324115916546,1671623717.535,551,164006,101534
480,8488.331887741064,1671623717.535,551,164006,101534
481,8488.339659565581,1671623717.535,550,163968,101566
481,8488.347431390099,1671623717.535,550,163968,101566
482,8488.355203214616,1671623717.535,551,163945,101536
482,8488.362975039134,1671623717.535,551,163945,101536
483,8488.370746863651,1671623717.535,550,163969,101516
483,8488.378518688169,1671623717.535,550,163969,101516
484,8488.386290512686,1671623717.535,550,163959,101557
484,8488.394062337204,1671623717.535,550,163959,101557
485,8488.401834161721,1671623717.535,548,164017,101560
485,8488.409605986239,1671623717.535,548,164017,101560
486,8488.417377810756,1671623717.633,550,164001,101556
486,8488.425149635274,1671623717.633,550,164001,101556
487,8488.432921459791,1671623717.633,551,163981,101582
487,8488.440693284309,1671623717.633,551,163981,101582
488,8488.448465108826,1671623717.633,553,164006,101595
488,8488.456236933343,1671623717.633,553,164006,101595
489,8488.464008757861,1671623717.633,552,164020,101577
489,8488.471780582378,1671623717.633,552,164020,101577
490,8488.476953056683,1671623717.633,551,163994,101607
490,8488.484558728527,1671623717.633,551,163994,101607
491,8488.492164400372,1671623717.633,550,163986,101582
491,8488.499770072216,1671623717.633,550,163986,101582
492,8488.50737574406,1671623717.719,550,164033,101607
492,8488.514981415905,1671623717.719,550,164033,101607
493,8488.52258708775,1671623717.719,550,163985,101592
493,8488.530192759594,1671623717.719,550,163985,101592
494,8488.537798431438,1671623717.719,550,164011,101625
494,8488.545404103283,1671623717.719,550,164011,101625
495,8488.553009775127,1671623717.719,551,164044,101587
495,8488.560615446971,1671623717.719,551,164044,101587
496,8488.568221118816,1671623717.719,553,163959,101587
496,8488.57582679066,1671623717.719,553,163959,101587
497,8488.583432462505,1671623717.719,553,164156,101653
497,8488.59103813435,1671623717.719,553,164156,101653
498,8488.598643806194,1671623717.932,552,164122,101598
498,8488.606249478038,1671623717.932,552,164122,101598
499,8488.613855149883,1671623717.932,551,164072,101605
499,8488.621460821727,1671623717.932,551,164072,101605
500,8488.672319842988,1671623717.932,550,164106,101583
500,8488.686027956905,1671623717.932,550,164106,101583
501,8488.699736070821,1671623717.932,550,164100,101609
501,8488.713444184737,1671623717.932,550,164100,101609
502,8488.727152298654,1671623717.932,550,164028,101613
502,8488.74086041257,1671623717.932,550,164028,101613
503,8488.754568526487,1671623717.932,551,164123,101633
503,8488.768276640403,1671623717.932,551,164123,101633
504,8488.78198475432,1671623717.938,553,164107,101622
504,8488.795692868236,1671623717.938,553,164107,101622
505,8488.809400982153,1671623717.938,551,164068,101583
505,8488.823109096069,1671623717.938,551,164068,101583
506,8488.836817209985,1671623717.938,549,164130,101563
506,8488.850525323902,1671623717.938,549,164130,101563
507,8488.864233437818,1671623717.938,550,164130,101559
507,8488.877941551735,1671623717.938,550,164130,101559
508,8488.891649665651,1671623717.938,548,164034,101570
508,8488.905357779568,1671623717.938,548,164034,101570
509,8488.919065893484,1671623717.938,549,164161,101583
509,8488.9327740074,1671623717.938,549,164161,101583
510,8488.805153757481,1671623718.005,550,164016,101573
510,8488.805766175043,1671623718.005,550,164016,101573
511,8488.806378592604,1671623718.005,552,163916,101550
511,8488.806991010166,1671623718.005,552,163916,101550
512,8488.807603427727,1671623718.005,552,163896,101529
512,8488.808215845289,1671623718.005,552,163896,101529
513,8488.80882826285,1671623718.005,552,164008,101523
513,8488.809440680412,1671623718.005,552,164008,101523
514,8488.810053097974,1671623718.005,551,163898,101574
514,8488.810665515535,1671623718.005,551,163898,101574
515,8488.811277933097,1671623718.005,550,163895,101567
515,8488.811890350658,1671623718.005,550,163895,101567
516,8488.81250276822,1671623718.109,550,163942,101570
516,8488.813115185781,1671623718.109,550,163942,101570
517,8488.813727603343,1671623718.109,550,163865,101585
517,8488.814340020905,1671623718.109,550,163865,101585
518,8488.814952438466,1671623718.109,550,163977,101591
518,8488.815564856028,1671623718.109,550,163977,101591
519,8488.81617727359,1671623718.109,552,163967,101633
519,8488.816789691151,1671623718.109,552,163967,101633
520,8488.951225747205,1671623718.109,552,164049,101725
520,8488.959205212122,1671623718.109,552,164049,101725
521,8488.96718467704,1671623718.109,552,164020,101721
521,8488.975164141957,1671623718.109,552,164020,101721
522,8488.983143606874,1671623718.187,552,164020,101732
522,8488.991123071792,1671623718.187,552,164020,101732
523,8488.999102536709,1671623718.187,549,163908,101734
523,8489.007082001626,1671623718.187,549,163908,101734
524,8489.015061466544,1671623718.187,549,164051,101699
524,8489.02304093146,1671623718.187,549,164051,101699
525,8489.031020396378,1671623718.187,550,164046,101700
525,8489.038999861295,1671623718.187,550,164046,101700
526,8489.046979326213,1671623718.187,549,164040,101718
526,8489.05495879113,1671623718.187,549,164040,101718
527,8489.062938256047,1671623718.187,552,163941,101702
527,8489.070917720965,1671623718.187,552,163941,101702
528,8489.078897185882,1671623718.282,551,164021,101703
528,8489.0868766508,1671623718.282,551,164021,101703
529,8489.094856115717,1671623718.282,553,163934,101696
529,8489.102835580634,1671623718.282,553,163934,101696
530,8489.094069087529,1671623718.282,552,163969,101689
530,8489.10107617617,1671623718.282,552,163969,101689
531,8489.108083264811,1671623718.282,550,163889,101725
531,8489.115090353453,1671623718.282,550,163889,101725
532,8489.122097442094,1671623718.282,550,163884,101721
532,8489.129104530735,1671623718.282,550,163884,101721
533,8489.136111619377,1671623718.282,549,163873,101728
533,8489.143118708018,1671623718.282,549,163873,101728
534,8489.15012579666,1671623718.382,550,163953,101751
534,8489.1571328853,1671623718.382,550,163953,101751
535,8489.164139973942,1671623718.382,552,163954,101792
535,8489.171147062583,1671623718.382,552,163954,101792
536,8489.178154151225,1671623718.382,553,164020,101819
536,8489.185161239866,1671623718.382,553,164020,101819
537,8489.192168328507,1671623718.382,551,164027,101891
537,8489.199175417149,1671623718.382,551,164027,101891
538,8489.20618250579,1671623718.382,552,164116,101929
538,8489.213189594431,1671623718.382,552,164116,101929
539,8489.220196683073,1671623718.382,551,164098,101994
539,8489.227203771714,1671623718.382,551,164098,101994
540,8489.25881680683,1671623718.47,549,164188,102044
540,8489.266653349703,1671623718.47,549,164188,102044
541,8489.274489892576,1671623718.47,547,164165,102049
541,8489.282326435448,1671623718.47,547,164165,102049
542,8489.290162978321,1671623718.47,551,164183,102107
542,8489.297999521194,1671623718.47,551,164183,102107
543,8489.305836064066,1671623718.47,552,164274,102155
543,8489.313672606939,1671623718.47,552,164274,102155
544,8489.321509149811,1671623718.47,552,164200,102181
544,8489.329345692684,1671623718.47,552,164200,102181
545,8489.337182235557,1671623718.47,552,164203,102233
545,8489.34501877843,1671623718.47,552,164203,102233
546,8489.352855321302,1671623718.556,552,164378,102273
546,8489.360691864174,1671623718.556,552,164378,102273
547,8489.368528407047,1671623718.556,550,164299,102263
547,8489.37636494992,1671623718.556,550,164299,102263
548,8489.384201492792,1671623718.556,550,164356,102284
548,8489.392038035665,1671623718.556,550,164356,102284
549,8489.399874578537,1671623718.556,549,164313,102268
549,8489.40771112141,1671623718.556,549,164313,102268
550,8489.402202640596,1671623718.556,550,164395,102263
550,8489.408890905263,1671623718.556,550,164395,102263
551,8489.415579169929,1671623718.556,550,164396,102238
551,8489.422267434595,1671623718.556,550,164396,102238
552,8489.42895569926,1671623718.655,550,164259,102212
552,8489.435643963927,1671623718.655,550,164259,102212
553,8489.442332228593,1671623718.655,551,164351,102207
553,8489.449020493259,1671623718.655,551,164351,102207
554,8489.455708757925,1671623718.655,550,164267,102175
554,8489.462397022591,1671623718.655,550,164267,102175
555,8489.469085287257,1671623718.655,549,164321,102153
555,8489.475773551923,1671623718.655,549,164321,102153
556,8489.48246181659,1671623718.655,551,164287,102119
556,8489.489150081256,1671623718.655,551,164287,102119
557,8489.495838345922,1671623718.655,548,164337,102129
557,8489.502526610588,1671623718.655,548,164337,102129
558,8489.509214875254,1671623718.77,552,164381,102146
558,8489.51590313992,1671623718.77,552,164381,102146
559,8489.522591404586,1671623718.77,553,164298,102149
559,8489.529279669252,1671623718.77,553,164298,102149
560,8489.57057574384,1671623718.77,552,164351,102184
560,8489.579202448429,1671623718.77,552,164351,102184
561,8489.587829153017,1671623718.77,553,164352,102175
561,8489.596455857605,1671623718.77,553,164352,102175
562,8489.605082562193,1671623718.77,551,164312,102171
562,8489.613709266781,1671623718.77,551,164312,102171
563,8489.62233597137,1671623718.77,548,164186,102184
563,8489.630962675958,1671623718.77,548,164186,102184
564,8489.639589380546,1671623718.962,550,164320,102199
564,8489.648216085134,1671623718.962,550,164320,102199
565,8489.656842789722,1671623718.962,549,164278,102203
565,8489.66546949431,1671623718.962,549,164278,102203
566,8489.674096198898,1671623718.962,551,164287,102215
566,8489.682722903486,1671623718.962,551,164287,102215
567,8489.691349608074,1671623718.962,552,164219,102183
567,8489.699976312662,1671623718.962,552,164219,102183
568,8489.70860301725,1671623718.962,554,164238,102179
568,8489.717229721839,1671623718.962,554,164238,102179
569,8489.725856426427,1671623718.962,552,164271,102185
569,8489.734483131015,1671623718.962,552,164271,102185
570,8489.847424064294,1671623718.991,551,164289,102222
570,8489.862339239928,1671623718.991,551,164289,102222
571,8489.877254415562,1671623718.991,549,164251,102211
571,8489.892169591196,1671623718.991,549,164251,102211
572,8489.90708476683,1671623718.991,547,164143,102170
572,8489.921999942464,1671623718.991,547,164143,102170
573,8489.936915118098,1671623718.991,548,164226,102180
573,8489.951830293732,1671623718.991,548,164226,102180
574,8489.966745469366,1671623718.991,552,164195,102134
574,8489.981660645,1671623718.991,552,164195,102134
575,8489.996575820634,1671623718.991,552,164225,102152
575,8490.011490996269,1671623718.991,552,164225,102152
576,8490.026406171903,1671623719.053,553,164180,102136
576,8490.041321347537,1671623719.053,553,164180,102136
577,8490.05623652317,1671623719.053,551,164138,102120
577,8490.071151698805,1671623719.053,551,164138,102120
578,8490.086066874439,1671623719.053,548,164195,102133
578,8490.100982050073,1671623719.053,548,164195,102133
579,8490.115897225707,1671623719.053,549,164202,102153
579,8490.130812401341,1671623719.053,549,164202,102153
580,8489.904401147038,1671623719.053,548,164215,102146
580,8489.909096757481,1671623719.053,548,164215,102146
581,8489.913792367925,1671623719.053,548,164282,102159
581,8489.918487978368,1671623719.053,548,164282,102159
582,8489.923183588811,1671623719.121,551,164201,102135
582,8489.927879199255,1671623719.121,551,164201,102135
583,8489.932574809698,1671623719.121,552,164135,102122
583,8489.937270420141,1671623719.121,552,164135,102122
584,8489.941966030585,1671623719.121,552,164260,102140
584,8489.946661641028,1671623719.121,552,164260,102140
585,8489.951357251472,1671623719.121,552,164196,102155
585,8489.956052861915,1671623719.121,552,164196,102155
586,8489.960748472358,1671623719.121,550,164099,102117
586,8489.965444082802,1671623719.121,550,164099,102117
587,8489.970139693245,1671623719.121,550,164154,102113
587,8489.974835303688,1671623719.121,550,164154,102113
588,8489.979530914132,1671623719.219,548,164194,102105
588,8489.984226524575,1671623719.219,548,164194,102105
589,8489.988922135019,1671623719.219,549,164202,102113
589,8489.993617745462,1671623719.219,549,164202,102113
590,8490.028777428146,1671623719.219,550,164162,102116
590,8490.035717893665,1671623719.219,550,164162,102116
591,8490.042658359183,1671623719.219,553,164230,102113
591,8490.049598824702,1671623719.219,553,164230,102113
592,8490.05653929022,1671623719.219,552,164258,102132
592,8490.06347975574,1671623719.219,552,164258,102132
593,8490.070420221258,1671623719.219,550,164268,102133
593,8490.077360686777,1671623719.219,550,164268,102133
594,8490.084301152296,1671623719.308,550,164213,102119
594,8490.091241617814,1671623719.308,550,164213,102119
595,8490.098182083333,1671623719.308,551,164298,102108
595,8490.105122548852,1671623719.308,551,164298,102108
596,8490.11206301437,1671623719.308,550,164187,102114
596,8490.11900347989,1671623719.308,550,164187,102114
597,8490.125943945408,1671623719.308,550,164272,102120
597,8490.132884410927,1671623719.308,550,164272,102120
598,8490.139824876445,1671623719.308,550,164373,102138
598,8490.146765341964,1671623719.308,550,164373,102138
599,8490.153705807483,1671623719.308,553,164362,102127
599,8490.160646273001,1671623719.308,553,164362,102127
600,8490.183936193573,1671623719.406,553,164365,102128
600,8490.19095238053,1671623719.406,553,164365,102128
601,8490.197968567487,1671623719.406,553,164328,102128
601,8490.204984754444,1671623719.406,553,164328,102128
602,8490.212000941401,1671623719.406,551,164400,102156
602,8490.219017128358,1671623719.406,551,164400,102156
603,8490.226033315315,1671623719.406,550,164312,102130
603,8490.233049502272,1671623719.406,550,164312,102130
604,8490.24006568923,1671623719.406,549,164335,102150
604,8490.247081876187,1671623719.406,549,164335,102150
605,8490.254098063144,1671623719.406,549,164393,102132
605,8490.261114250101,1671623719.406,549,164393,102132
606,8490.268130437058,1671623719.508,552,164374,102147
606,8490.275146624015,1671623719.508,552,164374,102147
607,8490.282162810972,1671623719.508,552,164406,102156
607,8490.28917899793,1671623719.508,552,164406,102156
608,8490.296195184887,1671623719.508,553,164291,102113
608,8490.303211371844,1671623719.508,553,164291,102113
609,8490.3102275588,1671623719.508,552,164438,102127
609,8490.317243745758,1671623719.508,552,164438,102127
610,8490.35084541074,1671623719.508,551,164402,102113
610,8490.35875717873,1671623719.508,551,164402,102113
611,8490.36666894672,1671623719.508,550,164342,102112
611,8490.374580714712,1671623719.508,550,164342,102112
612,8490.382492482702,1671623719.594,549,164378,102104
612,8490.390404250693,1671623719.594,549,164378,102104
613,8490.398316018684,1671623719.594,551,164250,102074
613,8490.406227786674,1671623719.594,551,164250,102074
614,8490.414139554665,1671623719.594,552,164184,102059
614,8490.422051322656,1671623719.594,552,164184,102059
615,8490.429963090646,1671623719.594,553,164156,102103
615,8490.437874858637,1671623719.594,553,164156,102103
616,8490.445786626628,1671623719.594,552,164194,102068
616,8490.453698394618,1671623719.594,552,164194,102068
617,8490.461610162609,1671623719.594,553,164140,102086
617,8490.4695219306,1671623719.594,553,164140,102086
618,8490.47743369859,1671623719.69,550,164220,102062
618,8490.48534546658,1671623719.69,550,164220,102062
619,8490.493257234572,1671623719.69,550,164189,102036
619,8490.501169002562,1671623719.69,550,164189,102036
620,8490.502069680715,1671623719.69,550,164199,102050
620,8490.509345552948,1671623719.69,550,164199,102050
621,8490.51662142518,1671623719.69,550,164179,102022
621,8490.523897297413,1671623719.69,550,164179,102022
622,8490.531173169646,1671623719.69,553,164115,102013
622,8490.538449041878,1671623719.69,553,164115,102013
623,8490.54572491411,1671623719.69,554,164079,102020
623,8490.553000786344,1671623719.69,554,164079,102020
624,8490.560276658576,1671623719.784,554,164213,102024
624,8490.567552530809,1671623719.784,554,164213,102024
625,8490.574828403041,1671623719.784,553,164194,101985
625,8490.582104275274,1671623719.784,553,164194,101985
626,8490.589380147507,1671623719.784,552,164044,101964
626,8490.59665601974,1671623719.784,552,164044,101964
627,8490.603931891972,1671623719.784,552,164217,101966
627,8490.611207764205,1671623719.784,552,164217,101966
628,8490.618483636437,1671623719.784,551,164156,101928
628,8490.62575950867,1671623719.784,551,164156,101928
629,8490.633035380903,1671623719.784,551,164229,101991
629,8490.640311253135,1671623719.784,551,164229,101991
630,8490.660107509022,1671623719.881,553,164158,101975
630,8490.667442299098,1671623719.881,553,164158,101975
631,8490.674777089174,1671623719.881,553,164194,101988
631,8490.68211187925,1671623719.881,553,164194,101988
632,8490.689446669327,1671623719.881,552,164260,101974
632,8490.696781459403,1671623719.881,552,164260,101974
633,8490.704116249479,1671623719.881,552,164123,101918
633,8490.711451039555,1671623719.881,552,164123,101918
634,8490.718785829631,1671623719.881,551,164172,101888
634,8490.726120619707,1671623719.881,551,164172,101888
635,8490.733455409783,1671623719.881,550,164298,101832
635,8490.74079019986,1671623719.881,550,164298,101832
636,8490.748124989936,1671623719.971,550,164243,101810
636,8490.755459780012,1671623719.971,550,164243,101810
637,8490.762794570088,1671623719.971,553,164362,101823
637,8490.770129360164,1671623719.971,553,164362,101823
638,8490.77746415024,1671623719.971,552,164283,101803
638,8490.784798940316,1671623719.971,552,164283,101803
639,8490.792133730392,1671623719.971,552,164314,101796
639,8490.799468520469,1671623719.971,552,164314,101796
640,8490.816805282904,1671623719.971,552,164315,101766
640,8490.82392395765,1671623719.971,552,164315,101766
641,8490.831042632397,1671623719.971,551,164351,101640
641,8490.838161307143,1671623719.971,551,164351,101640
642,8490.84527998189,1671623720.071,551,164183,101235
642,8490.852398656636,1671623720.071,551,164183,101235
643,8490.859517331382,1671623720.071,555,163945,100820
643,8490.866636006129,1671623720.071,555,163945,100820
644,8490.873754680875,1671623720.071,557,163663,100863
644,8490.880873355622,1671623720.071,557,163663,100863
645,8490.887992030368,1671623720.071,557,163494,100809
645,8490.895110705114,1671623720.071,557,163494,100809
646,8490.90222937986,1671623720.071,560,163521,100948
646,8490.909348054607,1671623720.071,560,163521,100948
647,8490.916466729353,1671623720.071,559,163727,101393
647,8490.9235854041,1671623720.071,559,163727,101393
648,8490.930704078846,1671623720.157,558,163999,101776
648,8490.937822753593,1671623720.157,558,163999,101776
649,8490.944941428339,1671623720.157,557,164139,102048
649,8490.952060103085,1671623720.157,557,164139,102048
650,8490.975544522793,1671623720.157,552,164362,102238
650,8490.982561767354,1671623720.157,552,164362,102238
651,8490.989579011915,1671623720.157,554,164408,102309
651,8490.996596256477,1671623720.157,554,164408,102309
652,8491.003613501038,1671623720.157,552,164448,102381
652,8491.010630745599,1671623720.157,552,164448,102381
653,8491.01764799016,1671623720.157,554,164429,102371
653,8491.024665234721,1671623720.157,554,164429,102371
654,8491.031682479283,1671623720.262,555,164420,102372
654,8491.038699723844,1671623720.262,555,164420,102372
655,8491.045716968405,1671623720.262,555,164467,102312
655,8491.052734212966,1671623720.262,555,164467,102312
656,8491.059751457527,1671623720.262,555,164369,102163
656,8491.066768702089,1671623720.262,555,164369,102163
657,8491.07378594665,1671623720.262,555,164310,102193
657,8491.080803191211,1671623720.262,555,164310,102193
658,8491.087820435772,1671623720.262,553,164405,102262
658,8491.094837680334,1671623720.262,553,164405,102262
659,8491.101854924895,1671623720.262,554,164582,102338
659,8491.108872169456,1671623720.262,554,164582,102338
660,8491.139046886128,1671623720.345,553,164546,102469
660,8491.147243357012,1671623720.345,553,164546,102469
661,8491.155439827897,1671623720.345,553,164567,102529
661,8491.163636298781,1671623720.345,553,164567,102529
662,8491.171832769665,1671623720.345,555,164571,102599
662,8491.18002924055,1671623720.345,555,164571,102599
663,8491.188225711434,1671623720.345,552,164726,102665
663,8491.196422182318,1671623720.345,552,164726,102665
664,8491.204618653202,1671623720.345,553,164656,102734
664,8491.212815124087,1671623720.345,553,164656,102734
665,8491.221011594971,1671623720.345,553,164541,102770
665,8491.229208065855,1671623720.345,553,164541,102770
666,8491.23740453674,1671623720.436,551,164674,102858
666,8491.245601007624,1671623720.436,551,164674,102858
667,8491.253797478508,1671623720.436,550,164742,102879
667,8491.261993949392,1671623720.436,550,164742,102879
668,8491.270190420277,1671623720.436,551,164621,102969
668,8491.278386891161,1671623720.436,551,164621,102969
669,8491.286583362045,1671623720.436,552,164772,103007
669,8491.29477983293,1671623720.436,552,164772,103007
670,8491.281565077492,1671623720.436,553,164680,103037
670,8491.288673820854,1671623720.436,553,164680,103037
671,8491.295782564217,1671623720.436,553,164741,103053
671,8491.30289130758,1671623720.436,553,164741,103053
672,8491.310000050942,1671623720.53,553,164748,103091
672,8491.317108794305,1671623720.53,553,164748,103091
673,8491.324217537667,1671623720.53,551,164750,103058
673,8491.33132628103,1671623720.53,551,164750,103058
674,8491.338435024392,1671623720.53,550,164796,103083
674,8491.345543767755,1671623720.53,550,164796,103083
675,8491.352652511117,1671623720.53,549,164676,103089
675,8491.35976125448,1671623720.53,549,164676,103089
676,8491.366869997843,1671623720.53,549,164667,103068
676,8491.373978741205,1671623720.53,549,164667,103068
677,8491.381087484568,1671623720.53,551,164675,103027
677,8491.38819622793,1671623720.53,551,164675,103027
678,8491.395304971293,1671623720.641,553,164772,103051
678,8491.402413714655,1671623720.641,553,164772,103051
679,8491.409522458018,1671623720.641,550,164696,103045
679,8491.41663120138,1671623720.641,550,164696,103045
680,8491.443777878903,1671623720.641,550,164687,103034
680,8491.452056966797,1671623720.641,550,164687,103034
681,8491.46033605469,1671623720.641,549,164734,102989
681,8491.468615142583,1671623720.641,549,164734,102989
682,8491.476894230476,1671623720.641,549,164705,102993
682,8491.48517331837,1671623720.641,549,164705,102993
683,8491.493452406263,1671623720.641,548,164673,102995
683,8491.501731494156,1671623720.641,548,164673,102995
684,8491.51001058205,1671623720.72,548,164741,103006
684,8491.518289669943,1671623720.72,548,164741,103006
685,8491.526568757836,1671623720.72,550,164757,103062
685,8491.534847845729,1671623720.72,550,164757,103062
686,8491.543126933622,1671623720.72,551,164823,103102
686,8491.551406021516,1671623720.72,551,164823,103102
687,8491.559685109409,1671623720.72,549,164833,103166
687,8491.567964197302,1671623720.72,549,164833,103166
688,8491.576243285195,1671623720.72,552,164849,103195
688,8491.584522373088,1671623720.72,552,164849,103195
689,8491.592801460982,1671623720.72,548,164913,103244
689,8491.601080548875,1671623720.72,548,164913,103244
690,8491.594838369661,1671623720.811,549,164948,103260
690,8491.601056400465,1671623720.811,549,164948,103260
691,8491.607274431268,1671623720.811,549,164842,103257
691,8491.613492462071,1671623720.811,549,164842,103257
692,8491.619710492874,1671623720.811,549,164903,103295
692,8491.625928523677,1671623720.811,549,164903,103295
693,8491.63214655448,1671623720.811,550,164947,103293
693,8491.638364585284,1671623720.811,550,164947,103293
694,8491.644582616087,1671623720.811,550,164866,103288
694,8491.65080064689,1671623720.811,550,164866,103288
695,8491.657018677693,1671623720.811,551,164797,103308
695,8491.663236708497,1671623720.811,551,164797,103308
696,8491.6694547393,1671623720.905,551,164936,103350
696,8491.675672770103,1671623720.905,551,164936,103350
697,8491.681890800906,1671623720.905,549,164991,103338
697,8491.68810883171,1671623720.905,549,164991,103338
698,8491.694326862513,1671623720.905,549,164891,103320
698,8491.700544893316,1671623720.905,549,164891,103320
699,8491.70676292412,1671623720.905,547,165008,103351
699,8491.712980954922,1671623720.905,547,165008,103351
700,8491.749488649013,1671623720.905,548,165014,103355
700,8491.75682392494,1671623720.905,548,165014,103355
701,8491.764159200866,1671623720.905,550,165026,103376
701,8491.771494476792,1671623720.905,550,165026,103376
702,8491.778829752719,1671623721.008,553,165026,103403
702,8491.786165028645,1671623721.008,553,165026,103403
703,8491.793500304571,1671623721.008,551,165013,103470
703,8491.800835580498,1671623721.008,551,165013,103470
704,8491.808170856424,1671623721.008,553,165161,103476
704,8491.81550613235,1671623721.008,553,165161,103476
705,8491.822841408277,1671623721.008,549,165128,103526
705,8491.830176684203,1671623721.008,549,165128,103526
706,8491.83751196013,1671623721.008,549,165163,103561
706,8491.844847236056,1671623721.008,549,165163,103561
707,8491.852182511982,1671623721.008,548,165181,103582
707,8491.859517787909,1671623721.008,548,165181,103582
708,8491.866853063835,1671623721.091,549,165106,103599
708,8491.874188339762,1671623721.091,549,165106,103599
709,8491.881523615688,1671623721.091,550,165193,103647
709,8491.888858891614,1671623721.091,550,165193,103647
710,8491.911658412153,1671623721.091,553,165226,103674
710,8491.91857811725,1671623721.091,553,165226,103674
711,8491.925497822345,1671623721.091,551,165277,103706
711,8491.932417527441,1671623721.091,551,165277,103706
712,8491.939337232538,1671623721.091,552,165280,103782
712,8491.946256937634,1671623721.091,552,165280,103782
713,8491.95317664273,1671623721.091,549,165455,103871
713,8491.960096347826,1671623721.091,549,165455,103871
714,8491.967016052922,1671623721.185,550,165444,103899
714,8491.973935758018,1671623721.185,550,165444,103899
715,8491.980855463114,1671623721.185,552,165493,104003
715,8491.98777516821,1671623721.185,552,165493,104003
716,8491.994694873307,1671623721.185,551,165576,104102
716,8492.001614578403,1671623721.185,551,165576,104102
717,8492.0085342835,1671623721.185,552,165548,104120
717,8492.015453988595,1671623721.185,552,165548,104120
718,8492.022373693691,1671623721.185,554,165575,104152
718,8492.029293398788,1671623721.185,554,165575,104152
719,8492.036213103884,1671623721.185,553,165590,104232
719,8492.04313280898,1671623721.185,553,165590,104232
720,8492.060906269597,1671623721.283,552,165584,104359
720,8492.06825271773,1671623721.283,552,165584,104359
721,8492.075599165864,1671623721.283,551,165662,104464
721,8492.082945613998,1671623721.283,551,165662,104464
722,8492.090292062132,1671623721.283,551,165639,104523
722,8492.097638510266,1671623721.283,551,165639,104523
723,8492.1049849584,1671623721.283,549,165782,104668
723,8492.112331406533,1671623721.283,549,165782,104668
724,8492.119677854667,1671623721.283,551,165752,104730
724,8492.127024302801,1671623721.283,551,165752,104730
725,8492.134370750935,1671623721.283,553,165999,104867
725,8492.141717199069,1671623721.283,553,165999,104867
726,8492.149063647203,1671623721.379,553,165911,104914
726,8492.156410095336,1671623721.379,553,165911,104914
727,8492.16375654347,1671623721.379,554,165937,104959
727,8492.171102991604,1671623721.379,554,165937,104959
728,8492.178449439738,1671623721.379,555,165925,104975
728,8492.185795887872,1671623721.379,555,165925,104975
729,8492.193142336006,1671623721.379,551,165989,105037
729,8492.20048878414,1671623721.379,551,165989,105037
730,8492.223136832505,1671623721.379,551,165961,105081
730,8492.23063392766,1671623721.379,551,165961,105081
731,8492.238131022816,1671623721.379,553,166004,105160
731,8492.245628117971,1671623721.379,553,166004,105160
732,8492.253125213127,1671623721.486,552,166025,105199
732,8492.260622308282,1671623721.486,552,166025,105199
733,8492.268119403438,1671623721.486,554,166080,105187
733,8492.275616498593,1671623721.486,554,166080,105187
734,8492.283113593749,1671623721.486,554,165903,105105
734,8492.290610688904,1671623721.486,554,165903,105105
735,8492.29810778406,1671623721.486,553,165978,105094
735,8492.305604879215,1671623721.486,553,165978,105094
736,8492.31310197437,1671623721.486,552,165972,105073
736,8492.320599069526,1671623721.486,552,165972,105073
737,8492.328096164681,1671623721.486,552,165934,104996
737,8492.335593259837,1671623721.486,552,165934,104996
738,8492.343090354992,1671623721.558,550,165870,104968
738,8492.350587450148,1671623721.558,550,165870,104968
739,8492.358084545303,1671623721.558,551,165830,104934
739,8492.365581640459,1671623721.558,551,165830,104934
740,8492.384912948719,1671623721.558,552,165932,104914
740,8492.391345911285,1671623721.558,552,165932,104914
741,8492.39777887385,1671623721.558,555,165749,104877
741,8492.404211836416,1671623721.558,555,165749,104877
742,8492.410644798982,1671623721.558,555,165837,104830
742,8492.417077761547,1671623721.558,555,165837,104830
743,8492.423510724113,1671623721.558,554,165731,104747
743,8492.429943686679,1671623721.558,554,165731,104747
744,8492.436376649244,1671623721.657,553,165769,104713
744,8492.44280961181,1671623721.657,553,165769,104713
745,8492.449242574376,1671623721.657,551,165672,104662
745,8492.455675536941,1671623721.657,551,165672,104662
746,8492.462108499507,1671623721.657,552,165682,104637
746,8492.468541462073,1671623721.657,552,165682,104637
747,8492.474974424638,1671623721.657,550,165703,104636
747,8492.481407387204,1671623721.657,550,165703,104636
748,8492.48784034977,1671623721.657,551,165733,104609
748,8492.494273312335,1671623721.657,551,165733,104609
749,8492.500706274901,1671623721.657,552,165712,104600
749,8492.507139237467,1671623721.657,552,165712,104600
750,8492.533467397952,1671623721.762,552,165807,104551
750,8492.54120272854,1671623721.762,552,165807,104551
751,8492.548938059128,1671623721.762,551,165684,104503
751,8492.556673389716,1671623721.762,551,165684,104503
752,8492.564408720304,1671623721.762,554,165666,104479
752,8492.572144050891,1671623721.762,554,165666,104479
753,8492.57987938148,1671623721.762,550,165695,104458
753,8492.587614712067,1671623721.762,550,165695,104458
754,8492.595350042655,1671623721.762,550,165684,104413
754,8492.603085373243,1671623721.762,550,165684,104413
755,8492.61082070383,1671623721.762,551,165556,104389
755,8492.618556034418,1671623721.762,551,165556,104389
756,8492.626291365006,1671623721.841,550,165638,104386
756,8492.634026695594,1671623721.841,550,165638,104386
757,8492.641762026182,1671623721.841,553,165771,104490
757,8492.64949735677,1671623721.841,553,165771,104490
758,8492.657232687357,1671623721.841,554,165842,104533
758,8492.664968017945,1671623721.841,554,165842,104533
759,8492.672703348533,1671623721.841,553,165727,104521
759,8492.680438679121,1671623721.841,553,165727,104521
760,8492.689592804172,1671623721.841,553,165681,104457
760,8492.69586780723,1671623721.841,553,165681,104457
761,8492.702142810287,1671623721.841,550,165787,104440
761,8492.708417813345,1671623721.841,550,165787,104440
762,8492.714692816402,1671623721.933,550,165785,104421
762,8492.72096781946,1671623721.933,550,165785,104421
763,8492.727242822517,1671623721.933,551,165728,104423
763,8492.733517825574,1671623721.933,551,165728,104423
764,8492.739792828632,1671623721.933,554,165788,104420
764,8492.74606783169,1671623721.933,554,165788,104420
765,8492.752342834747,1671623721.933,555,165701,104389
765,8492.758617837804,1671623721.933,555,165701,104389
766,8492.764892840862,1671623721.933,555,165589,104413
766,8492.77116784392,1671623721.933,555,165589,104413
767,8492.777442846977,1671623721.933,553,165591,104396
767,8492.783717850034,1671623721.933,553,165591,104396
768,8492.789992853091,1671623722.029,554,165598,104378
768,8492.796267856149,1671623722.029,554,165598,104378
769,8492.802542859206,1671623722.029,551,165578,104372
769,8492.808817862264,1671623722.029,551,165578,104372
770,8492.84086889294,1671623722.029,550,165552,104369
770,8492.84826028884,1671623722.029,550,165552,104369
771,8492.85565168474,1671623722.029,553,165595,104397
771,8492.86304308064,1671623722.029,553,165595,104397
772,8492.870434476541,1671623722.029,553,165587,104411
772,8492.877825872441,1671623722.029,553,165587,104411
773,8492.885217268342,1671623722.029,554,165552,104482
773,8492.892608664242,1671623722.029,554,165552,104482
774,8492.900000060143,1671623722.127,555,165655,104524
774,8492.907391456043,1671623722.127,555,165655,104524
775,8492.914782851944,1671623722.127,552,165696,104509
775,8492.922174247844,1671623722.127,552,165696,104509
776,8492.929565643744,1671623722.127,554,165556,104438
776,8492.936957039645,1671623722.127,554,165556,104438
777,8492.944348435545,1671623722.127,550,165704,104429
777,8492.951739831446,1671623722.127,550,165704,104429
778,8492.959131227346,1671623722.127,552,165673,104433
778,8492.966522623246,1671623722.127,552,165673,104433
779,8492.973914019147,1671623722.127,552,165676,104380
779,8492.981305415047,1671623722.127,552,165676,104380
780,8493.003043948844,1671623722.222,553,165547,104335
780,8493.010691026946,1671623722.222,553,165547,104335
781,8493.018338105048,1671623722.222,555,165567,104315
781,8493.02598518315,1671623722.222,555,165567,104315
782,8493.033632261253,1671623722.222,554,165581,104300
782,8493.041279339355,1671623722.222,554,165581,104300
783,8493.048926417458,1671623722.222,555,165596,104277
783,8493.05657349556,1671623722.222,555,165596,104277
784,8493.064220573662,1671623722.222,552,165543,104260
784,8493.071867651764,1671623722.222,552,165543,104260
785,8493.079514729867,1671623722.222,553,165585,104297
785,8493.08716180797,1671623722.222,553,165585,104297
786,8493.094808886071,1671623722.307,551,165596,104311
786,8493.102455964174,1671623722.307,551,165596,104311
787,8493.110103042276,1671623722.307,552,165622,104343
787,8493.117750120378,1671623722.307,552,165622,104343
788,8493.12539719848,1671623722.307,553,165566,104325
788,8493.133044276583,1671623722.307,553,165566,104325
789,8493.140691354685,1671623722.307,555,165599,104323
789,8493.148338432788,1671623722.307,555,165599,104323
790,8493.15365324742,1671623722.307,555,165648,104320
790,8493.16030935008,1671623722.307,555,165648,104320
791,8493.16696545274,1671623722.307,555,165574,104303
791,8493.1736215554,1671623722.307,555,165574,104303
792,8493.180277658059,1671623722.434,552,165544,104298
792,8493.186933760719,1671623722.434,552,165544,104298
793,8493.193589863378,1671623722.434,549,165556,104306
793,8493.200245966038,1671623722.434,549,165556,104306
794,8493.206902068698,1671623722.434,552,165529,104301
794,8493.213558171357,1671623722.434,552,165529,104301
795,8493.220214274017,1671623722.434,552,165484,104268
795,8493.226870376677,1671623722.434,552,165484,104268
796,8493.233526479336,1671623722.434,554,165504,104256
796,8493.240182581996,1671623722.434,554,165504,104256
797,8493.246838684656,1671623722.434,557,165523,104271
797,8493.253494787316,1671623722.434,557,165523,104271
798,8493.260150889975,1671623722.507,553,165574,104243
798,8493.266806992635,1671623722.507,553,165574,104243
799,8493.273463095295,1671623722.507,556,165618,104294
799,8493.280119197954,1671623722.507,556,165618,104294
800,8493.334770670934,1671623722.507,552,165576,104297
800,8493.341680252117,1671623722.507,552,165576,104297
801,8493.3485898333,1671623722.507,552,165652,104326
801,8493.355499414483,1671623722.507,552,165652,104326
802,8493.362408995667,1671623722.507,552,165519,104279
802,8493.36931857685,1671623722.507,552,165519,104279
803,8493.376228158033,1671623722.507,554,165573,104294
803,8493.383137739216,1671623722.507,554,165573,104294
804,8493.3900473204,1671623722.594,553,165668,104254
804,8493.396956901583,1671623722.594,553,165668,104254
805,8493.403866482766,1671623722.594,556,165527,104162
805,8493.410776063949,1671623722.594,556,165527,104162
806,8493.417685645132,1671623722.594,557,165580,103932
806,8493.424595226315,1671623722.594,557,165580,103932
807,8493.431504807499,1671623722.594,555,165603,103793
807,8493.438414388682,1671623722.594,555,165603,103793
808,8493.445323969865,1671623722.594,555,165531,103543
808,8493.452233551048,1671623722.594,555,165531,103543
809,8493.459143132231,1671623722.594,556,165536,103349
809,8493.466052713415,1671623722.594,556,165536,103349
810,8493.46909545576,1671623722.685,555,165491,103233
810,8493.475903002472,1671623722.685,555,165491,103233
811,8493.482710549184,1671623722.685,556,165468,103203
811,8493.489518095896,1671623722.685,556,165468,103203
812,8493.496325642607,1671623722.685,557,165411,103137
812,8493.503133189319,1671623722.685,557,165411,103137
813,8493.50994073603,1671623722.685,557,165350,103088
813,8493.516748282742,1671623722.685,557,165350,103088
814,8493.523555829453,1671623722.685,558,165339,103057
814,8493.530363376165,1671623722.685,558,165339,103057
815,8493.537170922877,1671623722.685,556,165230,103005
815,8493.543978469588,1671623722.685,556,165230,103005
816,8493.5507860163,1671623722.78,553,165247,103034
816,8493.557593563011,1671623722.78,553,165247,103034
817,8493.564401109723,1671623722.78,555,165121,103007
817,8493.571208656434,1671623722.78,555,165121,103007
818,8493.578016203146,1671623722.78,554,165176,102986
818,8493.584823749858,1671623722.78,554,165176,102986
819,8493.59163129657,1671623722.78,553,165214,103000
819,8493.59843884328,1671623722.78,553,165214,103000
820,8493.624187502099,1671623722.78,554,165162,103017
820,8493.63155341061,1671623722.78,554,165162,103017
821,8493.638919319123,1671623722.78,558,165139,103036
821,8493.646285227635,1671623722.78,558,165139,103036
822,8493.653651136146,1671623722.882,555,165175,103059
822,8493.661017044658,1671623722.882,555,165175,103059
823,8493.66838295317,1671623722.882,556,165208,103093
823,8493.675748861682,1671623722.882,556,165208,103093
824,8493.683114770194,1671623722.882,554,165312,103143
824,8493.690480678706,1671623722.882,554,165312,103143
825,8493.697846587218,1671623722.882,554,165292,103175
825,8493.70521249573,1671623722.882,554,165292,103175
826,8493.712578404242,1671623722.882,555,165264,103162
826,8493.719944312754,1671623722.882,555,165264,103162
827,8493.727310221266,1671623722.882,554,165169,103177
827,8493.734676129778,1671623722.882,554,165169,103177
828,8493.74204203829,1671623722.968,555,165181,103198
828,8493.749407946802,1671623722.968,555,165181,103198
829,8493.756773855313,1671623722.968,556,165190,103208
829,8493.764139763825,1671623722.968,556,165190,103208
830,8493.786416962477,1671623722.968,555,165332,103215
830,8493.793539666443,1671623722.968,555,165332,103215
831,8493.80066237041,1671623722.968,556,165151,103250
831,8493.807785074376,1671623722.968,556,165151,103250
832,8493.814907778342,1671623722.968,555,165190,103260
832,8493.822030482308,1671623722.968,555,165190,103260
833,8493.829153186274,1671623722.968,555,165226,103265
833,8493.83627589024,1671623722.968,555,165226,103265
834,8493.843398594207,1671623723.058,554,165260,103346
834,8493.850521298173,1671623723.058,554,165260,103346
835,8493.857644002139,1671623723.058,555,165358,103542
835,8493.864766706105,1671623723.058,555,165358,103542
836,8493.871889410071,1671623723.058,556,165324,103684
836,8493.879012114037,1671623723.058,556,165324,103684
837,8493.886134818003,1671623723.058,558,165384,103800
837,8493.89325752197,1671623723.058,558,165384,103800
838,8493.900380225936,1671623723.058,557,165368,103934
838,8493.907502929902,1671623723.058,557,165368,103934
839,8493.914625633868,1671623723.058,557,165402,103988
839,8493.921748337834,1671623723.058,557,165402,103988
840,8493.933209250483,1671623723.169,556,165364,104046
840,8493.940193131071,1671623723.169,556,165364,104046
841,8493.94717701166,1671623723.169,554,165341,104122
841,8493.954160892248,1671623723.169,554,165341,104122
842,8493.961144772837,1671623723.169,554,165346,104116
842,8493.968128653425,1671623723.169,554,165346,104116
843,8493.975112534014,1671623723.169,555,165371,104130
843,8493.982096414602,1671623723.169,555,165371,104130
844,8493.98908029519,1671623723.169,556,165376,104088
844,8493.996064175779,1671623723.169,556,165376,104088
845,8494.003048056367,1671623723.169,559,165360,104082
845,8494.010031936956,1671623723.169,559,165360,104082
846,8494.017015817544,1671623723.384,557,165398,104106
846,8494.023999698133,1671623723.384,557,165398,104106
847,8494.030983578721,1671623723.384,556,165457,104014
847,8494.03796745931,1671623723.384,556,165457,104014
848,8494.044951339898,1671623723.384,555,165283,103989
848,8494.051935220486,1671623723.384,555,165283,103989
849,8494.058919101075,1671623723.384,555,165341,103936
849,8494.065902981663,1671623723.384,555,165341,103936
850,8494.199534960042,1671623723.384,554,165299,103897
850,8494.215843966715,1671623723.384,554,165299,103897
851,8494.232152973387,1671623723.384,557,165303,103843
851,8494.24846198006,1671623723.384,557,165303,103843
852,8494.264770986732,1671623723.4,558,165203,103832
852,8494.281079993405,1671623723.4,558,165203,103832
853,8494.297389000078,1671623723.4,559,165278,103750
853,8494.31369800675,1671623723.4,559,165278,103750
854,8494.330007013423,1671623723.4,557,165187,103593
854,8494.346316020095,1671623723.4,557,165187,103593
855,8494.362625026768,1671623723.4,560,165364,103585
855,8494.37893403344,1671623723.4,560,165364,103585
856,8494.395243040113,1671623723.4,558,165341,103612
856,8494.411552046786,1671623723.4,558,165341,103612
857,8494.427861053458,1671623723.4,555,165407,103665
857,8494.444170060131,1671623723.4,555,165407,103665
858,8494.460479066804,1671623723.461,555,165288,103627
858,8494.476788073476,1671623723.461,555,165288,103627
859,8494.493097080149,1671623723.461,558,165275,103623
859,8494.509406086821,1671623723.461,558,165275,103623
860,8494.291194955464,1671623723.461,558,165249,103635
860,8494.294959742529,1671623723.461,558,165249,103635
861,8494.298724529594,1671623723.461,561,165213,103649
861,8494.302489316658,1671623723.461,561,165213,103649
862,8494.306254103723,1671623723.461,558,165149,103665
862,8494.310018890788,1671623723.461,558,165149,103665
863,8494.313783677853,1671623723.461,558,165094,103674
863,8494.317548464918,1671623723.461,558,165094,103674
864,8494.321313251983,1671623723.549,555,165079,103664
864,8494.325078039048,1671623723.549,555,165079,103664
865,8494.328842826113,1671623723.549,556,165081,103642
865,8494.332607613178,1671623723.549,556,165081,103642
866,8494.336372400243,1671623723.549,556,165096,103656
866,8494.340137187308,1671623723.549,556,165096,103656
867,8494.343901974373,1671623723.549,557,165075,103631
867,8494.347666761438,1671623723.549,557,165075,103631
868,8494.351431548503,1671623723.549,558,165115,103653
868,8494.355196335568,1671623723.549,558,165115,103653
869,8494.358961122633,1671623723.549,561,165028,103606
869,8494.362725909697,1671623723.549,561,165028,103606
870,8494.424588547374,1671623723.632,558,165011,103609
870,8494.431439890901,1671623723.632,558,165011,103609
871,8494.438291234428,1671623723.632,558,165076,103547
871,8494.445142577955,1671623723.632,558,165076,103547
872,8494.451993921482,1671623723.632,557,165066,103444
872,8494.45884526501,1671623723.632,557,165066,103444
873,8494.465696608537,1671623723.632,557,165089,103368
873,8494.472547952064,1671623723.632,557,165089,103368
874,8494.479399295591,1671623723.632,557,165067,103252
874,8494.486250639118,1671623723.632,557,165067,103252
875,8494.493101982645,1671623723.632,560,164940,103182
875,8494.499953326173,1671623723.632,560,164940,103182
876,8494.5068046697,1671623723.724,561,165106,103174
876,8494.513656013227,1671623723.724,561,165106,103174
877,8494.520507356754,1671623723.724,560,165008,103182
877,8494.527358700281,1671623723.724,560,165008,103182
878,8494.534210043808,1671623723.724,559,165105,103225
878,8494.541061387336,1671623723.724,559,165105,103225
879,8494.547912730863,1671623723.724,557,165001,103217
879,8494.55476407439,1671623723.724,557,165001,103217
880,8494.56890448303,1671623723.724,556,164975,103228
880,8494.576066412897,1671623723.724,556,164975,103228
881,8494.583228342764,1671623723.724,555,164932,103281
881,8494.590390272631,1671623723.724,555,164932,103281
882,8494.597552202498,1671623723.817,555,165019,103316
882,8494.604714132365,1671623723.817,555,165019,103316
883,8494.611876062232,1671623723.817,557,165021,103354
883,8494.619037992099,1671623723.817,557,165021,103354
884,8494.626199921966,1671623723.817,559,165091,103397
884,8494.633361851833,1671623723.817,559,165091,103397
885,8494.6405237817,1671623723.817,558,164973,103423
885,8494.647685711567,1671623723.817,558,164973,103423
886,8494.654847641434,1671623723.817,557,164998,103450
886,8494.6620095713,1671623723.817,557,164998,103450
887,8494.669171501168,1671623723.817,559,164869,103467
887,8494.676333431034,1671623723.817,559,164869,103467
888,8494.683495360901,1671623723.923,555,165008,103489
888,8494.690657290768,1671623723.923,555,165008,103489
889,8494.697819220635,1671623723.923,556,164972,103483
889,8494.704981150502,1671623723.923,556,164972,103483
890,8494.728854814894,1671623723.923,557,164977,103516
890,8494.736838220051,1671623723.923,557,164977,103516
891,8494.744821625209,1671623723.923,555,164987,103547
891,8494.752805030366,1671623723.923,555,164987,103547
892,8494.760788435524,1671623723.923,559,165071,103546
892,8494.768771840681,1671623723.923,559,165071,103546
893,8494.776755245839,1671623723.923,558,165090,103573
893,8494.784738650997,1671623723.923,558,165090,103573
894,8494.792722056154,1671623724.007,557,165017,103577
894,8494.800705461312,1671623724.007,557,165017,103577
895,8494.80868886647,1671623724.007,557,165078,103559
895,8494.816672271627,1671623724.007,557,165078,103559
896,8494.824655676784,1671623724.007,556,165181,103613
896,8494.832639081942,1671623724.007,556,165181,103613
897,8494.8406224871,1671623724.007,557,165126,103632
897,8494.848605892257,1671623724.007,557,165126,103632
898,8494.856589297415,1671623724.007,554,165117,103626
898,8494.864572702572,1671623724.007,554,165117,103626
899,8494.87255610773,1671623724.007,556,165145,103594
899,8494.880539512887,1671623724.007,556,165145,103594
900,8494.882276026454,1671623724.195,558,165207,103581
900,8494.888878486861,1671623724.195,558,165207,103581
901,8494.895480947269,1671623724.195,557,165203,103574
901,8494.902083407676,1671623724.195,557,165203,103574
902,8494.908685868084,1671623724.195,556,165278,103620
902,8494.915288328491,1671623724.195,556,165278,103620
903,8494.921890788899,1671623724.195,555,165230,103559
903,8494.928493249306,1671623724.195,555,165230,103559
904,8494.935095709714,1671623724.195,552,165163,103563
904,8494.941698170122,1671623724.195,552,165163,103563
905,8494.948300630529,1671623724.195,554,165066,103525
905,8494.954903090937,1671623724.195,554,165066,103525
906,8494.961505551344,1671623724.254,554,165080,103530
906,8494.968108011752,1671623724.254,554,165080,103530
907,8494.97471047216,1671623724.254,554,165023,103557
907,8494.981312932567,1671623724.254,554,165023,103557
908,8494.987915392974,1671623724.254,555,164991,103543
908,8494.994517853382,1671623724.254,555,164991,103543
909,8495.00112031379,1671623724.254,555,165080,103578
909,8495.007722774197,1671623724.254,555,165080,103578
910,8495.107839440314,1671623724.254,555,165000,103558
910,8495.1130124749,1671623724.254,555,165000,103558
911,8495.118185509486,1671623724.254,555,165030,103591
911,8495.123358544071,1671623724.254,555,165030,103591
912,8495.128531578657,1671623724.291,553,165006,103593
912,8495.133704613243,1671623724.291,553,165006,103593
913,8495.138877647829,1671623724.291,552,164923,103546
913,8495.144050682415,1671623724.291,552,164923,103546
914,8495.149223717,1671623724.291,553,164966,103553
914,8495.154396751586,1671623724.291,553,164966,103553
915,8495.159569786172,1671623724.291,556,164948,103545
915,8495.164742820758,1671623724.291,556,164948,103545
916,8495.169915855344,1671623724.291,555,164876,103526
916,8495.17508888993,1671623724.291,555,164876,103526
917,8495.180261924515,1671623724.291,554,164802,103488
917,8495.185434959101,1671623724.291,554,164802,103488
918,8495.190607993687,1671623724.376,555,164920,103484
918,8495.195781028273,1671623724.376,555,164920,103484
919,8495.200954062859,1671623724.376,554,164865,103469
919,8495.206127097445,1671623724.376,554,164865,103469
920,8495.192199347513,1671623724.376,552,164838,103444
920,8495.197726600487,1671623724.376,552,164838,103444
921,8495.20325385346,1671623724.376,551,164862,103460
921,8495.208781106434,1671623724.376,551,164862,103460
922,8495.214308359407,1671623724.376,552,164873,103442
922,8495.21983561238,1671623724.376,552,164873,103442
923,8495.225362865354,1671623724.376,553,164919,103472
923,8495.230890118328,1671623724.376,553,164919,103472
924,8495.236417371301,1671623724.473,555,164854,103462
924,8495.241944624275,1671623724.473,555,164854,103462
925,8495.247471877248,1671623724.473,553,164863,103459
925,8495.252999130222,1671623724.473,553,164863,103459
926,8495.258526383195,1671623724.473,554,164854,103464
926,8495.264053636169,1671623724.473,554,164854,103464
927,8495.269580889142,1671623724.473,552,164892,103468
927,8495.275108142116,1671623724.473,552,164892,103468
928,8495.28063539509,1671623724.473,552,164933,103450
928,8495.286162648063,1671623724.473,552,164933,103450
929,8495.291689901036,1671623724.473,551,164868,103482
929,8495.29721715401,1671623724.473,551,164868,103482
930,8495.349804207233,1671623724.567,552,164889,103483
930,8495.35742696498,1671623724.567,552,164889,103483
931,8495.365049722726,1671623724.567,552,164914,103463
931,8495.372672480473,1671623724.567,552,164914,103463
932,8495.38029523822,1671623724.567,555,164927,103470
932,8495.387917995966,1671623724.567,555,164927,103470
933,8495.395540753712,1671623724.567,553,164896,103471
933,8495.403163511459,1671623724.567,553,164896,103471
934,8495.410786269205,1671623724.567,553,164953,103511
934,8495.418409026952,1671623724.567,553,164953,103511
935,8495.426031784698,1671623724.567,552,164955,103484
935,8495.433654542445,1671623724.567,552,164955,103484
936,8495.441277300191,1671623724.66,553,164948,103417
936,8495.448900057938,1671623724.66,553,164948,103417
937,8495.456522815684,1671623724.66,551,164923,103441
937,8495.46414557343,1671623724.66,551,164923,103441
938,8495.471768331177,1671623724.66,552,164964,103445
938,8495.479391088924,1671623724.66,552,164964,103445
939,8495.48701384667,1671623724.66,554,164892,103438
939,8495.494636604417,1671623724.66,554,164892,103438
940,8495.504925267453,1671623724.66,554,164867,103446
940,8495.512184968698,1671623724.66,554,164867,103446
941,8495.519444669944,1671623724.66,554,164960,103436
941,8495.52670437119,1671623724.66,554,164960,103436
942,8495.533964072436,1671623724.762,556,164975,103417
942,8495.541223773682,1671623724.762,556,164975,103417
943,8495.548483474928,1671623724.762,553,165011,103425
943,8495.555743176174,1671623724.762,553,165011,103425
944,8495.56300287742,1671623724.762,552,165073,103450
944,8495.570262578665,1671623724.762,552,165073,103450
945,8495.577522279911,1671623724.762,553,164997,103432
945,8495.584781981157,1671623724.762,553,164997,103432
946,8495.592041682403,1671623724.762,554,164995,103426
946,8495.599301383649,1671623724.762,554,164995,103426
947,8495.606561084895,1671623724.762,553,164909,103410
947,8495.61382078614,1671623724.762,553,164909,103410
948,8495.621080487386,1671623724.846,556,165054,103423
948,8495.628340188632,1671623724.846,556,165054,103423
949,8495.635599889878,1671623724.846,555,164940,103406
949,8495.642859591124,1671623724.846,555,164940,103406
950,8495.665637087108,1671623724.846,554,164936,103407
950,8495.672601274076,1671623724.846,554,164936,103407
951,8495.679565461045,1671623724.846,551,165121,103467
951,8495.686529648014,1671623724.846,551,165121,103467
952,8495.693493834982,1671623724.846,551,165098,103481
952,8495.70045802195,1671623724.846,551,165098,103481
953,8495.70742220892,1671623724.846,550,164878,103476
953,8495.714386395888,1671623724.846,550,164878,103476
954,8495.721350582857,1671623724.932,553,164984,103484
954,8495.728314769825,1671623724.932,553,164984,103484
955,8495.735278956794,1671623724.932,553,164965,103518
955,8495.742243143763,1671623724.932,553,164965,103518
956,8495.749207330731,1671623724.932,556,164978,103520
956,8495.7561715177,1671623724.932,556,164978,103520
957,8495.763135704668,1671623724.932,552,164885,103504
957,8495.770099891637,1671623724.932,552,164885,103504
958,8495.777064078606,1671623724.932,554,164863,103514
958,8495.784028265574,1671623724.932,554,164863,103514
959,8495.790992452543,1671623724.932,552,164936,103537
959,8495.797956639512,1671623724.932,552,164936,103537
960,8495.807047388715,1671623725.029,553,164878,103558
960,8495.813774660874,1671623725.029,553,164878,103558
961,8495.820501933033,1671623725.029,551,164937,103575
961,8495.827229205192,1671623725.029,551,164937,103575
962,8495.83395647735,1671623725.029,552,165004,103567
962,8495.84068374951,1671623725.029,552,165004,103567
963,8495.847411021668,1671623725.029,554,164840,103536
963,8495.854138293827,1671623725.029,554,164840,103536
964,8495.860865565986,1671623725.029,556,164835,103520
964,8495.867592838145,1671623725.029,556,164835,103520
965,8495.874320110304,1671623725.029,555,164909,103527
965,8495.881047382463,1671623725.029,555,164909,103527
966,8495.887774654622,1671623725.143,554,164875,103532
966,8495.894501926781,1671623725.143,554,164875,103532
967,8495.90122919894,1671623725.143,553,164983,103559
967,8495.9079564711,1671623725.143,553,164983,103559
968,8495.914683743258,1671623725.143,553,164946,103549
968,8495.921411015417,1671623725.143,553,164946,103549
969,8495.928138287576,1671623725.143,552,164922,103527
969,8495.934865559735,1671623725.143,552,164922,103527
970,8495.98287444944,1671623725.143,552,164851,103503
970,8495.991727456068,1671623725.143,552,164851,103503
971,8496.000580462696,1671623725.143,556,164865,103469
971,8496.009433469324,1671623725.143,556,164865,103469
972,8496.018286475952,1671623725.221,556,164847,103470
972,8496.02713948258,1671623725.221,556,164847,103470
973,8496.035992489207,1671623725.221,554,164898,103468
973,8496.044845495835,1671623725.221,554,164898,103468
974,8496.053698502463,1671623725.221,556,164882,103446
974,8496.06255150909,1671623725.221,556,164882,103446
975,8496.071404515718,1671623725.221,552,164863,103505
975,8496.080257522346,1671623725.221,552,164863,103505
976,8496.089110528974,1671623725.221,552,164960,103532
976,8496.097963535602,1671623725.221,552,164960,103532
977,8496.10681654223,1671623725.221,553,164871,103528
977,8496.115669548857,1671623725.221,553,164871,103528
978,8496.124522555485,1671623725.311,553,164935,103519
978,8496.133375562113,1671623725.311,553,164935,103519
979,8496.14222856874,1671623725.311,555,164847,103529
979,8496.151081575368,1671623725.311,555,164847,103529
980,8496.126415788187,1671623725.311,555,164923,103549
980,8496.133181615518,1671623725.311,555,164923,103549
981,8496.139947442849,1671623725.311,555,164900,103538
981,8496.14671327018,1671623725.311,555,164900,103538
982,8496.153479097511,1671623725.311,554,164932,103525
982,8496.160244924842,1671623725.311,554,164932,103525
983,8496.167010752173,1671623725.311,553,164922,103571
983,8496.173776579504,1671623725.311,553,164922,103571
984,8496.180542406835,1671623725.41,552,165010,103588
984,8496.187308234166,1671623725.41,552,165010,103588
985,8496.194074061497,1671623725.41,553,165062,103600
985,8496.200839888828,1671623725.41,553,165062,103600
986,8496.20760571616,1671623725.41,553,165036,103576
986,8496.21437154349,1671623725.41,553,165036,103576
987,8496.221137370821,1671623725.41,555,165005,103598
987,8496.227903198152,1671623725.41,555,165005,103598
988,8496.234669025484,1671623725.41,555,164918,103586
988,8496.241434852815,1671623725.41,555,164918,103586
989,8496.248200680146,1671623725.41,554,165082,103625
989,8496.254966507477,1671623725.41,554,165082,103625
990,8496.286961243664,1671623725.502,554,165067,103607
990,8496.294695777167,1671623725.502,554,165067,103607
991,8496.30243031067,1671623725.502,554,165054,103600
991,8496.310164844173,1671623725.502,554,165054,103600
992,8496.317899377676,1671623725.502,555,165094,103621
992,8496.32563391118,1671623725.502,555,165094,103621
993,8496.333368444682,1671623725.502,552,165054,103613
993,8496.341102978186,1671623725.502,552,165054,103613
994,8496.348837511689,1671623725.502,554,165097,103609
994,8496.356572045192,1671623725.502,554,165097,103609
995,8496.364306578695,1671623725.502,554,165139,103613
995,8496.372041112198,1671623725.502,554,165139,103613
996,8496.3797756457,1671623725.596,555,165140,103576
996,8496.387510179204,1671623725.596,555,165140,103576
997,8496.395244712707,1671623725.596,554,165153,103588
997,8496.40297924621,1671623725.596,554,165153,103588
998,8496.410713779713,1671623725.596,555,165096,103574
998,8496.418448313216,1671623725.596,555,165096,103574
999,8496.426182846719,1671623725.596,553,165090,103582
999,8496.433917380222,1671623725.596,553,165090,103582
1000,8496.440765831805,1671623725.596,552,165085,103580
1000,8496.44810446978,1671623725.596,552,165085,103580
1001,8496.455443107756,1671623725.596,553,165038,103583
1001,8496.462781745731,1671623725.596,553,165038,103583
1002,8496.470120383707,1671623725.682,553,164988,103580
1002,8496.477459021682,1671623725.682,553,164988,103580
1003,8496.484797659657,1671623725.682,554,165011,103637
1003,8496.492136297633,1671623725.682,554,165011,103637
1004,8496.499474935608,1671623725.682,555,165093,103622
1004,8496.506813573584,1671623725.682,555,165093,103622
1005,8496.51415221156,1671623725.682,556,165012,103628
1005,8496.521490849535,1671623725.682,556,165012,103628
1006,8496.52882948751,1671623725.682,554,165021,103638
1006,8496.536168125485,1671623725.682,554,165021,103638
1007,8496.54350676346,1671623725.682,553,165045,103661
1007,8496.550845401436,1671623725.682,553,165045,103661
1008,8496.558184039412,1671623725.781,552,164974,103646
1008,8496.565522677387,1671623725.781,552,164974,103646
1009,8496.572861315362,1671623725.781,553,164977,103620
1009,8496.580199953338,1671623725.781,553,164977,103620
1010,8496.59129240522,1671623725.781,553,164949,103628
1010,8496.598729432246,1671623725.781,553,164949,103628
1011,8496.60616645927,1671623725.781,555,164941,103633
1011,8496.613603486296,1671623725.781,555,164941,103633
1012,8496.62104051332,1671623725.781,555,165001,103607
1012,8496.628477540346,1671623725.781,555,165001,103607
1013,8496.63591456737,1671623725.781,554,164994,103571
1013,8496.643351594395,1671623725.781,554,164994,103571
1014,8496.65078862142,1671623725.883,555,164982,103591
1014,8496.658225648445,1671623725.883,555,164982,103591
1015,8496.66566267547,1671623725.883,554,165004,103607
1015,8496.673099702495,1671623725.883,554,165004,103607
1016,8496.68053672952,1671623725.883,553,165025,103613
1016,8496.687973756545,1671623725.883,553,165025,103613
1017,8496.69541078357,1671623725.883,551,164963,103651
1017,8496.702847810595,1671623725.883,551,164963,103651
1018,8496.71028483762,1671623725.883,555,165096,103669
1018,8496.717721864645,1671623725.883,555,165096,103669
1019,8496.72515889167,1671623725.883,554,165099,103642
1019,8496.732595918695,1671623725.883,554,165099,103642
1020,8496.760269273329,1671623725.969,554,165000,103631
1020,8496.768245602547,1671623725.969,554,165000,103631
1021,8496.776221931765,1671623725.969,555,165019,103623
1021,8496.784198260983,1671623725.969,555,165019,103623
1022,8496.7921745902,1671623725.969,554,164976,103611
1022,8496.800150919418,1671623725.969,554,164976,103611
1023,8496.808127248636,1671623725.969,553,164977,103640
1023,8496.816103577854,1671623725.969,553,164977,103640
1024,8496.824079907072,1671623725.969,552,164991,103637
1024,8496.83205623629,1671623725.969,552,164991,103637
1025,8496.840032565507,1671623725.969,553,165042,103654
1025,8496.848008894725,1671623725.969,553,165042,103654
1026,8496.855985223943,1671623726.056,555,165066,103662
1026,8496.863961553161,1671623726.056,555,165066,103662
1027,8496.871937882379,1671623726.056,556,165009,103644
1027,8496.879914211597,1671623726.056,556,165009,103644
1028,8496.887890540815,1671623726.056,556,165021,103658
1028,8496.895866870032,1671623726.056,556,165021,103658
1029,8496.90384319925,1671623726.056,555,165183,103654
1029,8496.911819528468,1671623726.056,555,165183,103654
1030,8496.902477468651,1671623726.056,554,165094,103654
1030,8496.90925913597,1671623726.056,554,165094,103654
1031,8496.916040803288,1671623726.056,553,165058,103683
1031,8496.922822470606,1671623726.056,553,165058,103683
1032,8496.929604137924,1671623726.158,554,165136,103720
1032,8496.936385805242,1671623726.158,554,165136,103720
1033,8496.94316747256,1671623726.158,553,165073,103703
1033,8496.949949139878,1671623726.158,553,165073,103703
1034,8496.956730807196,1671623726.158,553,165253,103699
1034,8496.963512474515,1671623726.158,553,165253,103699
1035,8496.970294141833,1671623726.158,555,165115,103643
1035,8496.97707580915,1671623726.158,555,165115,103643
1036,8496.983857476469,1671623726.158,555,165142,103635
1036,8496.990639143787,1671623726.158,555,165142,103635
1037,8496.997420811105,1671623726.158,555,165103,103635
1037,8497.004202478423,1671623726.158,555,165103,103635
1038,8497.010984145742,1671623726.255,553,165154,103634
1038,8497.01776581306,1671623726.255,553,165154,103634
1039,8497.024547480378,1671623726.255,551,165245,103661
1039,8497.031329147696,1671623726.255,551,165245,103661
1040,8497.066791314064,1671623726.255,551,165210,103648
1040,8497.074486602918,1671623726.255,551,165210,103648
1041,8497.082181891772,1671623726.255,553,165088,103648
1041,8497.089877180626,1671623726.255,553,165088,103648
1042,8497.09757246948,1671623726.255,552,165081,103626
1042,8497.105267758334,1671623726.255,552,165081,103626
1043,8497.112963047188,1671623726.255,556,165153,103603
1043,8497.120658336042,1671623726.255,556,165153,103603
1044,8497.128353624896,1671623726.363,554,165160,103608
1044,8497.13604891375,1671623726.363,554,165160,103608
1045,8497.143744202604,1671623726.363,554,165152,103586
1045,8497.151439491457,1671623726.363,554,165152,103586
1046,8497.159134780311,1671623726.363,554,165121,103542
1046,8497.166830069165,1671623726.363,554,165121,103542
1047,8497.17452535802,1671623726.363,553,165121,103552
1047,8497.182220646873,1671623726.363,553,165121,103552
1048,8497.189915935727,1671623726.363,552,164991,103545
1048,8497.197611224581,1671623726.363,552,164991,103545
1049,8497.205306513435,1671623726.363,551,164979,103528
1049,8497.213001802289,1671623726.363,551,164979,103528
1050,8497.24031173044,1671623726.433,554,165024,103495
1050,8497.248729712435,1671623726.433,554,165024,103495
1051,8497.25714769443,1671623726.433,555,165019,103502
1051,8497.265565676425,1671623726.433,555,165019,103502
1052,8497.27398365842,1671623726.433,555,164992,103504
1052,8497.282401640416,1671623726.433,555,164992,103504
1053,8497.29081962241,1671623726.433,554,164935,103480
1053,8497.299237604406,1671623726.433,554,164935,103480
1054,8497.3076555864,1671623726.433,553,164904,103447
1054,8497.316073568396,1671623726.433,553,164904,103447
1055,8497.324491550391,1671623726.433,553,164871,103429
1055,8497.332909532386,1671623726.433,553,164871,103429
1056,8497.341327514381,1671623726.531,551,164890,103433
1056,8497.349745496376,1671623726.531,551,164890,103433
1057,8497.358163478371,1671623726.531,552,164955,103408
1057,8497.366581460366,1671623726.531,552,164955,103408
1058,8497.374999442362,1671623726.531,554,164936,103415
1058,8497.383417424357,1671623726.531,554,164936,103415
1059,8497.391835406352,1671623726.531,555,164872,103363
1059,8497.400253388347,1671623726.531,555,164872,103363
1060,8497.374293538649,1671623726.531,555,164835,103347
1060,8497.381774414975,1671623726.531,555,164835,103347
1061,8497.3892552913,1671623726.531,555,164833,103345
1061,8497.396736167626,1671623726.531,555,164833,103345
1062,8497.404217043952,1671623726.649,552,164868,103341
1062,8497.411697920277,1671623726.649,552,164868,103341
1063,8497.419178796603,1671623726.649,551,164776,103341
1063,8497.426659672929,1671623726.649,551,164776,103341
1064,8497.434140549254,1671623726.649,550,164811,103358
1064,8497.44162142558,1671623726.649,550,164811,103358
1065,8497.449102301905,1671623726.649,554,164937,103409
1065,8497.456583178231,1671623726.649,554,164937,103409
1066,8497.464064054557,1671623726.649,554,164955,103427
1066,8497.471544930882,1671623726.649,554,164955,103427
1067,8497.479025807208,1671623726.649,556,164891,103397
1067,8497.486506683534,1671623726.649,556,164891,103397
1068,8497.49398755986,1671623726.716,555,164905,103426
1068,8497.501468436185,1671623726.716,555,164905,103426
1069,8497.50894931251,1671623726.716,556,164881,103396
1069,8497.516430188836,1671623726.716,556,164881,103396
1070,8497.547057798105,1671623726.716,553,164790,103419
1070,8497.55349630176,1671623726.716,553,164790,103419
1071,8497.559934805415,1671623726.716,553,164922,103459
1071,8497.56637330907,1671623726.716,553,164922,103459
1072,8497.572811812724,1671623726.716,551,164890,103441
1072,8497.57925031638,1671623726.716,551,164890,103441
1073,8497.585688820034,1671623726.716,553,164989,103519
1073,8497.592127323689,1671623726.716,553,164989,103519
1074,8497.598565827344,1671623726.809,554,164962,103515
1074,8497.605004330999,1671623726.809,554,164962,103515
1075,8497.611442834654,1671623726.809,558,164987,103551
1075,8497.617881338309,1671623726.809,558,164987,103551
1076,8497.624319841963,1671623726.809,555,165003,103573
1076,8497.630758345618,1671623726.809,555,165003,103573
1077,8497.637196849273,1671623726.809,556,165013,103565
1077,8497.643635352928,1671623726.809,556,165013,103565
1078,8497.650073856583,1671623726.809,554,165006,103543
1078,8497.656512360238,1671623726.809,554,165006,103543
1079,8497.662950863893,1671623726.809,552,165045,103567
1079,8497.669389367547,1671623726.809,552,165045,103567
1080,8497.684907485693,1671623726.908,551,164912,103558
1080,8497.692128891207,1671623726.908,551,164912,103558
1081,8497.699350296722,1671623726.908,553,164917,103547
1081,8497.706571702236,1671623726.908,553,164917,103547
1082,8497.71379310775,1671623726.908,552,165031,103545
1082,8497.721014513265,1671623726.908,552,165031,103545
1083,8497.72823591878,1671623726.908,555,164955,103533
1083,8497.735457324294,1671623726.908,555,164955,103533
1084,8497.742678729808,1671623726.908,554,164981,103498
1084,8497.749900135323,1671623726.908,554,164981,103498
1085,8497.757121540837,1671623726.908,556,164933,103493
1085,8497.764342946351,1671623726.908,556,164933,103493
1086,8497.771564351866,1671623727.002,553,165022,103503
1086,8497.77878575738,1671623727.002,553,165022,103503
1087,8497.786007162895,1671623727.002,555,164986,103493
1087,8497.79322856841,1671623727.002,555,164986,103493
1088,8497.800449973924,1671623727.002,550,164922,103516
1088,8497.807671379438,1671623727.002,550,164922,103516
1089,8497.814892784952,1671623727.002,554,165131,103533
1089,8497.822114190467,1671623727.002,554,165131,103533
1090,8497.846564190808,1671623727.002,553,164973,103519
1090,8497.853963043954,1671623727.002,553,164973,103519
1091,8497.8613618971,1671623727.002,556,165069,103517
1091,8497.868760750245,1671623727.002,556,165069,103517
1092,8497.876159603391,1671623727.092,555,165097,103512
1092,8497.883558456537,1671623727.092,555,165097,103512
1093,8497.890957309683,1671623727.092,554,165102,103526
1093,8497.898356162828,1671623727.092,554,165102,103526
1094,8497.905755015974,1671623727.092,552,165114,103503
1094,8497.91315386912,1671623727.092,552,165114,103503
1095,8497.920552722266,1671623727.092,554,165105,103466
1095,8497.927951575411,1671623727.092,554,165105,103466
1096,8497.935350428557,1671623727.092,553,165004,103312
1096,8497.942749281703,1671623727.092,553,165004,103312
1097,8497.950148134849,1671623727.092,554,165129,103041
1097,8497.957546987995,1671623727.092,554,165129,103041
1098,8497.96494584114,1671623727.178,556,165013,102680
1098,8497.972344694286,1671623727.178,556,165013,102680
1099,8497.979743547432,1671623727.178,559,164880,102253
1099,8497.987142400578,1671623727.178,559,164880,102253
1100,8497.996118101957,1671623727.178,558,164800,101974
1100,8498.002959266765,1671623727.178,558,164800,101974
1101,8498.009800431573,1671623727.178,558,164770,101931
1101,8498.016641596381,1671623727.178,558,164770,101931
1102,8498.02348276119,1671623727.178,555,164668,101971
1102,8498.030323925997,1671623727.178,555,164668,101971
1103,8498.037165090806,1671623727.178,555,164655,102053
1103,8498.044006255614,1671623727.178,555,164655,102053
1104,8498.050847420422,1671623727.278,555,164652,102118
1104,8498.05768858523,1671623727.278,555,164652,102118
