id,lsl_ts,unix_ts,ambient,ir,red
110862,11484.203407866667,1671626713.371,532,92371,54261
110862,11484.203407866667,1671626713.371,532,92371,54261
110863,11484.210193133333,1671626713.371,516,98218,54217
110863,11484.210193133333,1671626713.371,516,98218,54217
110864,11484.2169784,1671626713.371,512,98238,54214
110864,11484.2169784,1671626713.371,512,98238,54214
110865,11484.223763666667,1671626713.371,514,98242,54189
110865,11484.223763666667,1671626713.371,514,98242,54189
110866,11484.230548933332,1671626713.371,512,98183,54196
110866,11484.230548933332,1671626713.371,512,98183,54196
110867,11484.2373342,1671626713.371,512,98054,54162
110867,11484.2373342,1671626713.371,512,98054,54162
110868,11484.251535383333,1671626713.456,514,98031,54111
110868,11484.251535383333,1671626713.456,514,98031,54111
110869,11484.265736566666,1671626713.456,512,98009,54114
110869,11484.265736566666,1671626713.456,512,98009,54114
110870,11484.27993775,1671626713.456,512,98001,54122
110870,11484.27993775,1671626713.456,512,98001,54122
110871,11484.294138933334,1671626713.456,512,97899,54089
110871,11484.294138933334,1671626713.456,512,97899,54089
110872,11484.308340116666,1671626713.456,510,98013,54114
110872,11484.308340116666,1671626713.456,510,98013,54114
110873,11484.3225413,1671626713.456,512,98036,54108
110873,11484.3225413,1671626713.456,512,98036,54108
110874,11484.338807866667,1671626713.554,512,98034,54098
110874,11484.338807866667,1671626713.554,512,98034,54098
110875,11484.355074433333,1671626713.554,511,98009,54116
110875,11484.355074433333,1671626713.554,511,98009,54116
110876,11484.371341,1671626713.554,512,98018,54115
110876,11484.371341,1671626713.554,512,98018,54115
110877,11484.387607566667,1671626713.554,511,98052,54111
110877,11484.387607566667,1671626713.554,511,98052,54111
110878,11484.403874133333,1671626713.554,512,98055,54133
110878,11484.403874133333,1671626713.554,512,98055,54133
110879,11484.4201407,1671626713.554,511,98111,54145
110879,11484.4201407,1671626713.554,511,98111,54145
110880,11484.434158816666,1671626713.638,511,98117,54133
110880,11484.434158816666,1671626713.638,511,98117,54133
110881,11484.448176933334,1671626713.638,510,98149,54150
110881,11484.448176933334,1671626713.638,510,98149,54150
110882,11484.46219505,1671626713.638,511,98182,54154
110882,11484.46219505,1671626713.638,511,98182,54154
110883,11484.476213166667,1671626713.638,511,98177,54147
110883,11484.476213166667,1671626713.638,511,98177,54147
110884,11484.490231283335,1671626713.638,511,98081,54151
110884,11484.490231283335,1671626713.638,511,98081,54151
110885,11484.5042494,1671626713.638,510,98144,54162
110885,11484.5042494,1671626713.638,510,98144,54162
110886,11484.520519283335,1671626713.735,509,98133,54167
110886,11484.520519283335,1671626713.735,509,98133,54167
110887,11484.536789166666,1671626713.735,510,98128,54149
110887,11484.536789166666,1671626713.735,510,98128,54149
110888,11484.55305905,1671626713.735,510,98167,54189
110888,11484.55305905,1671626713.735,510,98167,54189
110889,11484.569328933334,1671626713.735,511,98143,54183
110889,11484.569328933334,1671626713.735,511,98143,54183
110890,11484.585598816666,1671626713.735,509,98192,54161
110890,11484.585598816666,1671626713.735,509,98192,54161
110891,11484.6018687,1671626713.735,510,98117,54190
110891,11484.6018687,1671626713.735,510,98117,54190
110892,11484.616776883333,1671626713.825,511,98223,54191
110892,11484.616776883333,1671626713.825,511,98223,54191
110893,11484.631685066666,1671626713.825,510,98203,54193
110893,11484.631685066666,1671626713.825,510,98203,54193
110894,11484.64659325,1671626713.825,512,98186,54205
110894,11484.64659325,1671626713.825,512,98186,54205
110895,11484.661501433333,1671626713.825,511,98216,54217
110895,11484.661501433333,1671626713.825,511,98216,54217
110896,11484.676409616666,1671626713.825,510,98295,54227
110896,11484.676409616666,1671626713.825,510,98295,54227
110897,11484.6913178,1671626713.825,511,98279,54222
110897,11484.6913178,1671626713.825,511,98279,54222
110898,11484.70814175,1671626713.926,509,98310,54268
110898,11484.70814175,1671626713.926,509,98310,54268
110899,11484.7249657,1671626713.926,509,98307,54255
110899,11484.7249657,1671626713.926,509,98307,54255
110900,11484.741789650001,1671626713.926,512,98321,54245
110900,11484.741789650001,1671626713.926,512,98321,54245
110901,11484.7586136,1671626713.926,510,98342,54258
110901,11484.7586136,1671626713.926,510,98342,54258
110902,11484.77543755,1671626713.926,510,98393,54279
110902,11484.77543755,1671626713.926,510,98393,54279
110903,11484.7922615,1671626713.926,510,98347,54260
110903,11484.7922615,1671626713.926,510,98347,54260
110904,11484.806891533333,1671626714.014,510,98392,54281
110904,11484.806891533333,1671626714.014,510,98392,54281
110905,11484.821521566668,1671626714.014,509,98410,54294
110905,11484.821521566668,1671626714.014,509,98410,54294
110906,11484.8361516,1671626714.014,511,98467,54281
110906,11484.8361516,1671626714.014,511,98467,54281
110907,11484.850781633333,1671626714.014,509,98553,54283
110907,11484.850781633333,1671626714.014,509,98553,54283
110908,11484.865411666668,1671626714.014,510,98475,54284
110908,11484.865411666668,1671626714.014,510,98475,54284
110909,11484.8800417,1671626714.014,510,98547,54321
110909,11484.8800417,1671626714.014,510,98547,54321
110910,11484.9112969,1671626714.201,509,98608,54327
110910,11484.9112969,1671626714.201,509,98608,54327
110911,11484.9425521,1671626714.201,509,98643,54311
110911,11484.9425521,1671626714.201,509,98643,54311
110912,11484.9738073,1671626714.201,510,98694,54337
110912,11484.9738073,1671626714.201,510,98694,54337
110913,11485.0050625,1671626714.201,511,98655,54369
110913,11485.0050625,1671626714.201,511,98655,54369
110914,11485.0363177,1671626714.201,510,98682,54356
110914,11485.0363177,1671626714.201,510,98682,54356
110915,11485.0675729,1671626714.201,510,98717,54360
110915,11485.0675729,1671626714.201,510,98717,54360
110916,11485.074453516667,1671626714.242,511,98696,54382
110916,11485.074453516667,1671626714.242,511,98696,54382
110917,11485.081334133332,1671626714.242,510,98695,54391
110917,11485.081334133332,1671626714.242,510,98695,54391
110918,11485.08821475,1671626714.242,510,98746,54408
110918,11485.08821475,1671626714.242,510,98746,54408
110919,11485.095095366667,1671626714.242,510,98723,54392
110919,11485.095095366667,1671626714.242,510,98723,54392
110920,11485.101975983333,1671626714.242,510,98651,54379
110920,11485.101975983333,1671626714.242,510,98651,54379
110921,11485.1088566,1671626714.242,510,98585,54356
110921,11485.1088566,1671626714.242,510,98585,54356
110922,11485.116821616666,1671626714.29,510,98522,54324
110922,11485.116821616666,1671626714.29,510,98522,54324
110923,11485.124786633332,1671626714.29,510,98381,54305
110923,11485.124786633332,1671626714.29,510,98381,54305
110924,11485.132751649999,1671626714.29,510,98333,54278
110924,11485.132751649999,1671626714.29,510,98333,54278
110925,11485.140716666667,1671626714.29,511,98307,54285
110925,11485.140716666667,1671626714.29,511,98307,54285
110926,11485.148681683333,1671626714.29,509,98277,54237
110926,11485.148681683333,1671626714.29,509,98277,54237
110927,11485.1566467,1671626714.29,511,98260,54273
110927,11485.1566467,1671626714.29,511,98260,54273
110928,11485.173581733332,1671626714.392,509,98277,54275
110928,11485.173581733332,1671626714.392,509,98277,54275
110929,11485.190516766666,1671626714.392,509,98253,54259
110929,11485.190516766666,1671626714.392,509,98253,54259
110930,11485.2074518,1671626714.392,510,98230,54264
110930,11485.2074518,1671626714.392,510,98230,54264
110931,11485.224386833333,1671626714.392,510,98201,54266
110931,11485.224386833333,1671626714.392,510,98201,54266
110932,11485.241321866666,1671626714.392,511,98239,54254
110932,11485.241321866666,1671626714.392,511,98239,54254
110933,11485.2582569,1671626714.392,509,98236,54257
110933,11485.2582569,1671626714.392,509,98236,54257
110934,11485.274712350001,1671626714.491,509,98185,54258
110934,11485.274712350001,1671626714.491,509,98185,54258
110935,11485.2911678,1671626714.491,511,98241,54271
110935,11485.2911678,1671626714.491,511,98241,54271
110936,11485.30762325,1671626714.491,509,98249,54262
110936,11485.30762325,1671626714.491,509,98249,54262
110937,11485.324078700001,1671626714.491,510,98232,54270
110937,11485.324078700001,1671626714.491,510,98232,54270
110938,11485.34053415,1671626714.491,510,98202,54285
110938,11485.34053415,1671626714.491,510,98202,54285
110939,11485.3569896,1671626714.491,510,98192,54287
110939,11485.3569896,1671626714.491,510,98192,54287
110940,11485.37131,1671626714.576,511,98210,54260
110940,11485.37131,1671626714.576,511,98210,54260
110941,11485.3856304,1671626714.576,511,98149,54264
110941,11485.3856304,1671626714.576,511,98149,54264
110942,11485.399950800002,1671626714.576,510,98157,54276
110942,11485.399950800002,1671626714.576,510,98157,54276
110943,11485.414271200001,1671626714.576,509,98133,54273
110943,11485.414271200001,1671626714.576,509,98133,54273
110944,11485.4285916,1671626714.576,510,98134,54248
110944,11485.4285916,1671626714.576,510,98134,54248
110945,11485.442912,1671626714.576,510,98091,54240
110945,11485.442912,1671626714.576,510,98091,54240
110946,11485.4612792,1671626714.687,510,98142,54246
110946,11485.4612792,1671626714.687,510,98142,54246
110947,11485.479646400001,1671626714.687,510,98095,54244
110947,11485.479646400001,1671626714.687,510,98095,54244
110948,11485.498013600001,1671626714.687,511,98096,54229
110948,11485.498013600001,1671626714.687,511,98096,54229
110949,11485.5163808,1671626714.687,510,98196,54255
110949,11485.5163808,1671626714.687,510,98196,54255
110950,11485.534748,1671626714.687,510,98162,54251
110950,11485.534748,1671626714.687,510,98162,54251
110951,11485.5531152,1671626714.687,511,98089,54247
110951,11485.5531152,1671626714.687,511,98089,54247
110952,11485.56806915,1671626714.776,509,98214,54247
110952,11485.56806915,1671626714.776,509,98214,54247
110953,11485.5830231,1671626714.776,509,98257,54249
110953,11485.5830231,1671626714.776,509,98257,54249
110954,11485.59797705,1671626714.776,511,98311,54274
110954,11485.59797705,1671626714.776,511,98311,54274
110955,11485.612931,1671626714.776,511,98237,54256
110955,11485.612931,1671626714.776,511,98237,54256
110956,11485.62788495,1671626714.776,512,98342,54290
110956,11485.62788495,1671626714.776,512,98342,54290
110957,11485.6428389,1671626714.776,511,98344,54281
110957,11485.6428389,1671626714.776,511,98344,54281
110958,11485.655724766666,1671626714.854,510,98315,54292
110958,11485.655724766666,1671626714.854,510,98315,54292
110959,11485.668610633333,1671626714.854,510,98373,54296
110959,11485.668610633333,1671626714.854,510,98373,54296
110960,11485.6814965,1671626714.854,511,98418,54302
110960,11485.6814965,1671626714.854,511,98418,54302
110961,11485.694382366666,1671626714.854,512,98458,54308
110961,11485.694382366666,1671626714.854,512,98458,54308
110962,11485.707268233333,1671626714.854,511,98500,54313
110962,11485.707268233333,1671626714.854,511,98500,54313
110963,11485.7201541,1671626714.854,512,98421,54319
110963,11485.7201541,1671626714.854,512,98421,54319
110964,11485.736659116666,1671626714.953,511,98509,54338
110964,11485.736659116666,1671626714.953,511,98509,54338
110965,11485.753164133333,1671626714.953,512,98535,54363
110965,11485.753164133333,1671626714.953,512,98535,54363
110966,11485.769669149999,1671626714.953,512,98549,54356
110966,11485.769669149999,1671626714.953,512,98549,54356
110967,11485.786174166666,1671626714.953,509,98534,54360
110967,11485.786174166666,1671626714.953,509,98534,54360
110968,11485.802679183333,1671626714.953,510,98563,54351
110968,11485.802679183333,1671626714.953,510,98563,54351
110969,11485.8191842,1671626714.953,510,98564,54359
110969,11485.8191842,1671626714.953,510,98564,54359
110970,11485.834315866667,1671626715.043,510,98488,54347
110970,11485.834315866667,1671626715.043,510,98488,54347
110971,11485.849447533334,1671626715.043,512,98401,54299
110971,11485.849447533334,1671626715.043,512,98401,54299
110972,11485.864579199999,1671626715.043,514,98336,54290
110972,11485.864579199999,1671626715.043,514,98336,54290
110973,11485.879710866666,1671626715.043,511,98324,54273
110973,11485.879710866666,1671626715.043,511,98324,54273
110974,11485.894842533333,1671626715.043,511,98245,54251
110974,11485.894842533333,1671626715.043,511,98245,54251
110975,11485.9099742,1671626715.043,510,98189,54247
110975,11485.9099742,1671626715.043,510,98189,54247
110976,11485.9254876,1671626715.137,510,98234,54237
110976,11485.9254876,1671626715.137,510,98234,54237
110977,11485.941001,1671626715.137,511,98232,54257
110977,11485.941001,1671626715.137,511,98232,54257
110978,11485.9565144,1671626715.137,510,98274,54253
110978,11485.9565144,1671626715.137,510,98274,54253
110979,11485.9720278,1671626715.137,510,98258,54253
110979,11485.9720278,1671626715.137,510,98258,54253
110980,11485.9875412,1671626715.137,511,98250,54243
110980,11485.9875412,1671626715.137,511,98250,54243
110981,11486.0030546,1671626715.137,510,98210,54244
110981,11486.0030546,1671626715.137,510,98210,54244
110982,11486.018010566666,1671626715.226,511,98228,54247
110982,11486.018010566666,1671626715.226,511,98228,54247
110983,11486.032966533334,1671626715.226,511,98213,54264
110983,11486.032966533334,1671626715.226,511,98213,54264
110984,11486.0479225,1671626715.226,510,98234,54237
110984,11486.0479225,1671626715.226,510,98234,54237
110985,11486.062878466666,1671626715.226,510,98196,54254
110985,11486.062878466666,1671626715.226,510,98196,54254
110986,11486.077834433334,1671626715.226,510,98216,54237
110986,11486.077834433334,1671626715.226,510,98216,54237
110987,11486.0927904,1671626715.226,510,98248,54249
110987,11486.0927904,1671626715.226,510,98248,54249
110988,11486.109049816667,1671626715.324,510,98269,54244
110988,11486.109049816667,1671626715.324,510,98269,54244
110989,11486.125309233334,1671626715.324,510,98245,54260
110989,11486.125309233334,1671626715.324,510,98245,54260
110990,11486.14156865,1671626715.324,509,98229,54251
110990,11486.14156865,1671626715.324,509,98229,54251
110991,11486.157828066667,1671626715.324,509,98243,54229
110991,11486.157828066667,1671626715.324,509,98243,54229
110992,11486.174087483334,1671626715.324,508,98277,54252
110992,11486.174087483334,1671626715.324,508,98277,54252
110993,11486.1903469,1671626715.324,509,98238,54239
110993,11486.1903469,1671626715.324,509,98238,54239
110994,11486.207383783334,1671626715.426,511,98238,54235
110994,11486.207383783334,1671626715.426,511,98238,54235
110995,11486.224420666667,1671626715.426,510,98294,54245
110995,11486.224420666667,1671626715.426,510,98294,54245
110996,11486.24145755,1671626715.426,511,98355,54242
110996,11486.24145755,1671626715.426,511,98355,54242
110997,11486.258494433334,1671626715.426,510,98239,54234
110997,11486.258494433334,1671626715.426,510,98239,54234
110998,11486.275531316667,1671626715.426,511,98342,54253
110998,11486.275531316667,1671626715.426,511,98342,54253
110999,11486.2925682,1671626715.426,510,98352,54234
110999,11486.2925682,1671626715.426,510,98352,54234
111000,11486.307250933334,1671626715.514,509,98369,54249
111000,11486.307250933334,1671626715.514,509,98369,54249
111001,11486.321933666666,1671626715.514,508,98395,54254
111001,11486.321933666666,1671626715.514,508,98395,54254
111002,11486.3366164,1671626715.514,509,98453,54278
111002,11486.3366164,1671626715.514,509,98453,54278
111003,11486.351299133334,1671626715.514,511,98464,54292
111003,11486.351299133334,1671626715.514,511,98464,54292
111004,11486.365981866666,1671626715.514,509,98476,54292
111004,11486.365981866666,1671626715.514,509,98476,54292
111005,11486.3806646,1671626715.514,510,98441,54295
111005,11486.3806646,1671626715.514,510,98441,54295
111006,11486.396119383333,1671626715.607,510,98536,54306
111006,11486.396119383333,1671626715.607,510,98536,54306
111007,11486.411574166666,1671626715.607,509,98548,54306
111007,11486.411574166666,1671626715.607,509,98548,54306
111008,11486.42702895,1671626715.607,510,98584,54325
111008,11486.42702895,1671626715.607,510,98584,54325
111009,11486.442483733334,1671626715.607,509,98624,54330
111009,11486.442483733334,1671626715.607,509,98624,54330
111010,11486.457938516667,1671626715.607,510,98568,54318
111010,11486.457938516667,1671626715.607,510,98568,54318
111011,11486.4733933,1671626715.607,511,98601,54325
111011,11486.4733933,1671626715.607,511,98601,54325
111012,11486.489655200001,1671626715.704,510,98615,54340
111012,11486.489655200001,1671626715.704,510,98615,54340
111013,11486.505917100001,1671626715.704,509,98686,54334
111013,11486.505917100001,1671626715.704,509,98686,54334
111014,11486.522179,1671626715.704,510,98764,54360
111014,11486.522179,1671626715.704,510,98764,54360
111015,11486.5384409,1671626715.704,510,98776,54355
111015,11486.5384409,1671626715.704,510,98776,54355
111016,11486.5547028,1671626715.704,510,98664,54322
111016,11486.5547028,1671626715.704,510,98664,54322
111017,11486.5709647,1671626715.704,510,98578,54300
111017,11486.5709647,1671626715.704,510,98578,54300
111018,11486.585794616667,1671626715.793,510,98553,54297
111018,11486.585794616667,1671626715.793,510,98553,54297
111019,11486.600624533334,1671626715.793,512,98487,54285
111019,11486.600624533334,1671626715.793,512,98487,54285
111020,11486.61545445,1671626715.793,511,98462,54270
111020,11486.61545445,1671626715.793,511,98462,54270
111021,11486.630284366667,1671626715.793,510,98448,54259
111021,11486.630284366667,1671626715.793,510,98448,54259
111022,11486.645114283334,1671626715.793,511,98420,54243
111022,11486.645114283334,1671626715.793,511,98420,54243
111023,11486.6599442,1671626715.793,514,98454,54235
111023,11486.6599442,1671626715.793,514,98454,54235
111024,11486.676369683333,1671626715.892,511,98419,54237
111024,11486.676369683333,1671626715.892,511,98419,54237
111025,11486.692795166668,1671626715.892,511,98473,54259
111025,11486.692795166668,1671626715.892,511,98473,54259
111026,11486.70922065,1671626715.892,510,98484,54259
111026,11486.70922065,1671626715.892,510,98484,54259
111027,11486.725646133333,1671626715.892,512,98493,54263
111027,11486.725646133333,1671626715.892,512,98493,54263
111028,11486.742071616667,1671626715.892,511,98537,54278
111028,11486.742071616667,1671626715.892,511,98537,54278
111029,11486.7584971,1671626715.892,509,98519,54285
111029,11486.7584971,1671626715.892,509,98519,54285
111030,11486.772828716666,1671626715.978,511,98478,54279
111030,11486.772828716666,1671626715.978,511,98478,54279
111031,11486.787160333333,1671626715.978,511,98602,54294
111031,11486.787160333333,1671626715.978,511,98602,54294
111032,11486.80149195,1671626715.978,511,98541,54267
111032,11486.80149195,1671626715.978,511,98541,54267
111033,11486.815823566667,1671626715.978,511,98552,54278
111033,11486.815823566667,1671626715.978,511,98552,54278
111034,11486.830155183334,1671626715.978,510,98536,54306
111034,11486.830155183334,1671626715.978,510,98536,54306
111035,11486.8444868,1671626715.978,512,98538,54308
111035,11486.8444868,1671626715.978,512,98538,54308
111036,11486.8600964,1671626716.072,511,98577,54312
111036,11486.8600964,1671626716.072,511,98577,54312
111037,11486.875706,1671626716.072,510,98573,54302
111037,11486.875706,1671626716.072,510,98573,54302
111038,11486.8913156,1671626716.072,511,98582,54294
111038,11486.8913156,1671626716.072,511,98582,54294
111039,11486.906925199999,1671626716.072,510,98595,54286
111039,11486.906925199999,1671626716.072,510,98595,54286
111040,11486.9225348,1671626716.072,510,98599,54311
111040,11486.9225348,1671626716.072,510,98599,54311
111041,11486.9381444,1671626716.072,511,98616,54296
111041,11486.9381444,1671626716.072,511,98616,54296
111042,11486.95605965,1671626716.179,511,98556,54317
111042,11486.95605965,1671626716.179,511,98556,54317
111043,11486.9739749,1671626716.179,511,98579,54312
111043,11486.9739749,1671626716.179,511,98579,54312
111044,11486.991890149999,1671626716.179,511,98626,54303
111044,11486.991890149999,1671626716.179,511,98626,54303
111045,11487.0098054,1671626716.179,511,98663,54338
111045,11487.0098054,1671626716.179,511,98663,54338
111046,11487.02772065,1671626716.179,510,98634,54338
111046,11487.02772065,1671626716.179,510,98634,54338
111047,11487.0456359,1671626716.179,510,98711,54334
111047,11487.0456359,1671626716.179,510,98711,54334
111048,11487.060671466666,1671626716.269,509,98717,54341
111048,11487.060671466666,1671626716.269,509,98717,54341
111049,11487.075707033333,1671626716.269,512,98697,54355
111049,11487.075707033333,1671626716.269,512,98697,54355
111050,11487.090742600001,1671626716.269,511,98710,54356
111050,11487.090742600001,1671626716.269,511,98710,54356
111051,11487.105778166668,1671626716.269,511,98742,54352
111051,11487.105778166668,1671626716.269,511,98742,54352
111052,11487.120813733334,1671626716.269,511,98745,54350
111052,11487.120813733334,1671626716.269,511,98745,54350
111053,11487.1358493,1671626716.269,511,98754,54366
111053,11487.1358493,1671626716.269,511,98754,54366
111054,11487.149930066667,1671626716.354,511,98729,54362
111054,11487.149930066667,1671626716.354,511,98729,54362
111055,11487.164010833334,1671626716.354,511,98795,54387
111055,11487.164010833334,1671626716.354,511,98795,54387
111056,11487.1780916,1671626716.354,510,98773,54366
111056,11487.1780916,1671626716.354,510,98773,54366
111057,11487.192172366667,1671626716.354,510,98814,54377
111057,11487.192172366667,1671626716.354,510,98814,54377
111058,11487.206253133334,1671626716.354,510,98864,54365
111058,11487.206253133334,1671626716.354,510,98864,54365
111059,11487.2203339,1671626716.354,511,98818,54402
111059,11487.2203339,1671626716.354,511,98818,54402
111060,11487.236029466667,1671626716.448,511,98806,54376
111060,11487.236029466667,1671626716.448,511,98806,54376
111061,11487.251725033333,1671626716.448,510,98763,54338
111061,11487.251725033333,1671626716.448,510,98763,54338
111062,11487.267420600001,1671626716.448,511,98700,54321
111062,11487.267420600001,1671626716.448,511,98700,54321
111063,11487.283116166667,1671626716.448,509,98581,54319
111063,11487.283116166667,1671626716.448,509,98581,54319
111064,11487.298811733333,1671626716.448,511,98568,54304
111064,11487.298811733333,1671626716.448,511,98568,54304
111065,11487.3145073,1671626716.448,511,98627,54285
111065,11487.3145073,1671626716.448,511,98627,54285
111066,11487.332163166666,1671626716.554,511,98607,54285
111066,11487.332163166666,1671626716.554,511,98607,54285
111067,11487.349819033334,1671626716.554,511,98599,54286
111067,11487.349819033334,1671626716.554,511,98599,54286
111068,11487.3674749,1671626716.554,512,98628,54308
111068,11487.3674749,1671626716.554,512,98628,54308
111069,11487.385130766666,1671626716.554,510,98606,54305
111069,11487.385130766666,1671626716.554,510,98606,54305
111070,11487.402786633334,1671626716.554,510,98658,54303
111070,11487.402786633334,1671626716.554,510,98658,54303
111071,11487.4204425,1671626716.554,511,98615,54284
111071,11487.4204425,1671626716.554,511,98615,54284
111072,11487.43453715,1671626716.639,511,98639,54301
111072,11487.43453715,1671626716.639,511,98639,54301
111073,11487.4486318,1671626716.639,511,98681,54315
111073,11487.4486318,1671626716.639,511,98681,54315
111074,11487.462726450001,1671626716.639,512,98677,54345
111074,11487.462726450001,1671626716.639,512,98677,54345
111075,11487.476821100001,1671626716.639,512,98717,54322
111075,11487.476821100001,1671626716.639,512,98717,54322
111076,11487.49091575,1671626716.639,511,98747,54340
111076,11487.49091575,1671626716.639,511,98747,54340
111077,11487.5050104,1671626716.639,512,98744,54330
111077,11487.5050104,1671626716.639,512,98744,54330
111078,11487.521457283334,1671626716.737,510,98753,54335
111078,11487.521457283334,1671626716.737,510,98753,54335
111079,11487.537904166667,1671626716.737,511,98775,54347
111079,11487.537904166667,1671626716.737,511,98775,54347
111080,11487.55435105,1671626716.737,510,98739,54337
111080,11487.55435105,1671626716.737,510,98739,54337
111081,11487.570797933333,1671626716.737,514,98695,54339
111081,11487.570797933333,1671626716.737,514,98695,54339
111082,11487.587244816666,1671626716.737,511,98712,54328
111082,11487.587244816666,1671626716.737,511,98712,54328
111083,11487.6036917,1671626716.737,511,98754,54328
111083,11487.6036917,1671626716.737,511,98754,54328
111084,11487.618947816667,1671626716.829,512,98765,54341
111084,11487.618947816667,1671626716.829,512,98765,54341
111085,11487.634203933334,1671626716.829,511,98769,54343
111085,11487.634203933334,1671626716.829,511,98769,54343
111086,11487.649460050001,1671626716.829,511,98777,54341
111086,11487.649460050001,1671626716.829,511,98777,54341
111087,11487.664716166666,1671626716.829,509,98800,54382
111087,11487.664716166666,1671626716.829,509,98800,54382
111088,11487.679972283333,1671626716.829,510,98761,54358
111088,11487.679972283333,1671626716.829,510,98761,54358
111089,11487.6952284,1671626716.829,510,98797,54374
111089,11487.6952284,1671626716.829,510,98797,54374
111090,11487.711064233334,1671626716.924,510,98812,54361
111090,11487.711064233334,1671626716.924,510,98812,54361
111091,11487.726900066667,1671626716.924,510,98859,54379
111091,11487.726900066667,1671626716.924,510,98859,54379
111092,11487.7427359,1671626716.924,510,98823,54369
111092,11487.7427359,1671626716.924,510,98823,54369
111093,11487.758571733333,1671626716.924,511,98847,54374
111093,11487.758571733333,1671626716.924,511,98847,54374
111094,11487.774407566667,1671626716.924,511,98905,54361
111094,11487.774407566667,1671626716.924,511,98905,54361
111095,11487.7902434,1671626716.924,511,98876,54372
111095,11487.7902434,1671626716.924,511,98876,54372
111096,11487.805371550001,1671626717.015,512,98912,54410
111096,11487.805371550001,1671626717.015,512,98912,54410
111097,11487.820499700001,1671626717.015,512,98912,54415
111097,11487.820499700001,1671626717.015,512,98912,54415
111098,11487.83562785,1671626717.015,512,98953,54414
111098,11487.83562785,1671626717.015,512,98953,54414
111099,11487.850756,1671626717.015,511,98961,54402
111099,11487.850756,1671626717.015,511,98961,54402
111100,11487.86588415,1671626717.015,512,98997,54423
111100,11487.86588415,1671626717.015,512,98997,54423
111101,11487.8810123,1671626717.015,511,99025,54416
111101,11487.8810123,1671626717.015,511,99025,54416
111102,11487.896640866667,1671626717.108,509,99069,54417
111102,11487.896640866667,1671626717.108,509,99069,54417
111103,11487.912269433333,1671626717.108,512,98969,54399
111103,11487.912269433333,1671626717.108,512,98969,54399
111104,11487.927898,1671626717.108,510,98940,54374
111104,11487.927898,1671626717.108,510,98940,54374
111105,11487.943526566667,1671626717.108,511,98870,54365
111105,11487.943526566667,1671626717.108,511,98870,54365
111106,11487.959155133332,1671626717.108,511,98789,54354
111106,11487.959155133332,1671626717.108,511,98789,54354
111107,11487.9747837,1671626717.108,512,98824,54334
111107,11487.9747837,1671626717.108,512,98824,54334
111108,11487.989577866667,1671626717.197,511,98784,54313
111108,11487.989577866667,1671626717.197,511,98784,54313
111109,11488.004372033332,1671626717.197,511,98762,54322
111109,11488.004372033332,1671626717.197,511,98762,54322
111110,11488.0191662,1671626717.197,511,98815,54323
111110,11488.0191662,1671626717.197,511,98815,54323
111111,11488.033960366667,1671626717.197,511,98780,54339
111111,11488.033960366667,1671626717.197,511,98780,54339
111112,11488.04302599868,1671626717.197,512,98781,54344
111112,11488.049984088193,1671626717.197,512,98781,54344
111113,11488.056942177705,1671626717.197,512,98780,54331
111113,11488.063900267218,1671626717.197,512,98780,54331
111114,11488.07085835673,1671626717.298,512,98753,54310
111114,11488.077816446243,1671626717.298,512,98753,54310
111115,11488.084774535755,1671626717.298,511,98802,54347
111115,11488.091732625267,1671626717.298,511,98802,54347
111116,11488.09869071478,1671626717.298,511,98806,54320
111116,11488.105648804292,1671626717.298,511,98806,54320
111117,11488.112606893805,1671626717.298,512,98800,54343
111117,11488.119564983317,1671626717.298,512,98800,54343
111118,11488.12652307283,1671626717.298,511,98872,54346
111118,11488.133481162342,1671626717.298,511,98872,54346
111119,11488.140439251854,1671626717.298,511,98835,54349
111119,11488.147397341367,1671626717.298,511,98835,54349
111120,11488.15435543088,1671626717.391,511,98864,54354
111120,11488.161313520392,1671626717.391,511,98864,54354
111121,11488.168271609904,1671626717.391,512,98860,54353
111121,11488.175229699416,1671626717.391,512,98860,54353
111122,11488.205175664716,1671626717.391,512,98876,54341
111122,11488.212635593196,1671626717.391,512,98876,54341
111123,11488.220095521676,1671626717.391,512,98861,54363
111123,11488.227555450156,1671626717.391,512,98861,54363
111124,11488.235015378636,1671626717.391,511,98846,54347
111124,11488.242475307115,1671626717.391,511,98846,54347
111125,11488.249935235595,1671626717.391,511,98884,54353
111125,11488.257395164075,1671626717.391,511,98884,54353
111126,11488.264855092555,1671626717.478,512,98854,54361
111126,11488.272315021035,1671626717.478,512,98854,54361
111127,11488.279774949515,1671626717.478,511,98827,54345
111127,11488.287234877995,1671626717.478,511,98827,54345
111128,11488.294694806475,1671626717.478,511,98901,54371
111128,11488.302154734954,1671626717.478,511,98901,54371
111129,11488.309614663434,1671626717.478,512,98854,54363
111129,11488.317074591914,1671626717.478,512,98854,54363
111130,11488.324534520394,1671626717.478,512,98935,54360
111130,11488.331994448874,1671626717.478,512,98935,54360
111131,11488.339454377354,1671626717.478,512,98904,54382
111131,11488.346914305834,1671626717.478,512,98904,54382
111132,11488.352996376258,1671626717.581,510,98865,54380
111132,11488.359767979247,1671626717.581,510,98865,54380
111133,11488.366539582237,1671626717.581,511,98918,54376
111133,11488.373311185227,1671626717.581,511,98918,54376
111134,11488.380082788217,1671626717.581,510,98985,54383
111134,11488.386854391207,1671626717.581,510,98985,54383
111135,11488.393625994197,1671626717.581,511,98962,54373
111135,11488.400397597186,1671626717.581,511,98962,54373
111136,11488.407169200176,1671626717.581,510,98993,54403
111136,11488.413940803166,1671626717.581,510,98993,54403
111137,11488.420712406156,1671626717.581,512,99008,54393
111137,11488.427484009146,1671626717.581,512,99008,54393
111138,11488.434255612136,1671626717.682,512,99015,54420
111138,11488.441027215125,1671626717.682,512,99015,54420
111139,11488.447798818115,1671626717.682,512,99010,54392
111139,11488.454570421105,1671626717.682,512,99010,54392
111140,11488.461342024095,1671626717.682,510,99033,54414
111140,11488.468113627085,1671626717.682,510,99033,54414
111141,11488.474885230075,1671626717.682,514,99075,54418
111141,11488.481656833064,1671626717.682,514,99075,54418
111142,11488.524731993839,1671626717.682,512,99111,54423
111142,11488.532635737905,1671626717.682,512,99111,54423
111143,11488.540539481972,1671626717.682,509,99112,54429
111143,11488.548443226038,1671626717.682,509,99112,54429
111144,11488.556346970105,1671626717.767,511,99154,54447
111144,11488.564250714171,1671626717.767,511,99154,54447
111145,11488.572154458237,1671626717.767,512,99151,54452
111145,11488.580058202304,1671626717.767,512,99151,54452
111146,11488.58796194637,1671626717.767,512,99117,54444
111146,11488.595865690437,1671626717.767,512,99117,54444
111147,11488.603769434503,1671626717.767,512,99037,54405
111147,11488.61167317857,1671626717.767,512,99037,54405
111148,11488.619576922636,1671626717.767,511,98999,54376
111148,11488.627480666702,1671626717.767,511,98999,54376
111149,11488.635384410769,1671626717.767,511,98914,54368
111149,11488.643288154835,1671626717.767,511,98914,54368
111150,11488.651191898902,1671626717.855,510,98981,54369
111150,11488.659095642968,1671626717.855,510,98981,54369
111151,11488.666999387035,1671626717.855,511,98873,54306
111151,11488.674903131101,1671626717.855,511,98873,54306
111152,11488.671524453937,1671626717.855,511,98920,54350
111152,11488.678322995913,1671626717.855,511,98920,54350
111153,11488.685121537888,1671626717.855,512,98896,54344
111153,11488.691920079864,1671626717.855,512,98896,54344
111154,11488.69871862184,1671626717.855,514,98852,54356
111154,11488.705517163815,1671626717.855,514,98852,54356
111155,11488.71231570579,1671626717.855,512,98884,54334
111155,11488.719114247766,1671626717.855,512,98884,54334
111156,11488.725912789741,1671626717.955,511,98916,54346
111156,11488.732711331717,1671626717.955,511,98916,54346
111157,11488.739509873692,1671626717.955,511,98895,54343
111157,11488.746308415668,1671626717.955,511,98895,54343
111158,11488.753106957643,1671626717.955,511,98919,54368
111158,11488.759905499619,1671626717.955,511,98919,54368
111159,11488.766704041594,1671626717.955,511,98913,54372
111159,11488.77350258357,1671626717.955,511,98913,54372
111160,11488.780301125546,1671626717.955,512,98898,54350
111160,11488.787099667521,1671626717.955,512,98898,54350
111161,11488.793898209497,1671626717.955,512,98960,54337
111161,11488.800696751472,1671626717.955,512,98960,54337
111162,11488.831172714396,1671626718.048,512,98970,54361
111162,11488.83896554426,1671626718.048,512,98970,54361
111163,11488.846758374126,1671626718.048,511,98900,54348
111163,11488.854551203991,1671626718.048,511,98900,54348
111164,11488.862344033856,1671626718.048,511,98969,54371
111164,11488.870136863721,1671626718.048,511,98969,54371
111165,11488.877929693586,1671626718.048,510,99036,54378
111165,11488.885722523451,1671626718.048,510,99036,54378
111166,11488.893515353317,1671626718.048,510,98942,54376
111166,11488.901308183182,1671626718.048,510,98942,54376
111167,11488.909101013047,1671626718.048,511,98972,54367
111167,11488.916893842912,1671626718.048,511,98972,54367
111168,11488.924686672777,1671626718.188,510,98926,54356
111168,11488.932479502642,1671626718.188,510,98926,54356
111169,11488.940272332507,1671626718.188,512,98933,54352
111169,11488.948065162373,1671626718.188,512,98933,54352
111170,11488.955857992238,1671626718.188,510,98980,54370
111170,11488.963650822103,1671626718.188,510,98980,54370
111171,11488.971443651968,1671626718.188,511,98942,54353
111171,11488.979236481833,1671626718.188,511,98942,54353
111172,11489.021804294358,1671626718.188,511,99016,54363
111172,11489.03255120145,1671626718.188,511,99016,54363
111173,11489.043298108541,1671626718.188,509,98989,54355
111173,11489.054045015633,1671626718.188,509,98989,54355
111174,11489.064791922725,1671626718.224,511,99003,54353
111174,11489.075538829817,1671626718.224,511,99003,54353
111175,11489.086285736908,1671626718.224,510,99052,54389
111175,11489.097032644,1671626718.224,510,99052,54389
111176,11489.107779551092,1671626718.224,512,99036,54378
111176,11489.118526458184,1671626718.224,512,99036,54378
111177,11489.129273365275,1671626718.224,511,99087,54370
111177,11489.140020272367,1671626718.224,511,99087,54370
111178,11489.150767179459,1671626718.224,512,99057,54389
111178,11489.16151408655,1671626718.224,512,99057,54389
111179,11489.172260993642,1671626718.224,512,99108,54386
111179,11489.183007900734,1671626718.224,512,99108,54386
111180,11489.193754807826,1671626718.321,512,99100,54379
111180,11489.204501714918,1671626718.321,512,99100,54379
111181,11489.21524862201,1671626718.321,511,99064,54402
111181,11489.225995529101,1671626718.321,511,99064,54402
111182,11489.13003994735,1671626718.321,512,99142,54410
111182,11489.13624098894,1671626718.321,512,99142,54410
111183,11489.142442030532,1671626718.321,512,99144,54391
111183,11489.148643072123,1671626718.321,512,99144,54391
111184,11489.154844113715,1671626718.321,514,99200,54413
111184,11489.161045155306,1671626718.321,514,99200,54413
111185,11489.167246196897,1671626718.321,511,99154,54419
111185,11489.173447238489,1671626718.321,511,99154,54419
111186,11489.17964828008,1671626718.427,511,99140,54434
111186,11489.185849321671,1671626718.427,511,99140,54434
111187,11489.192050363263,1671626718.427,511,99195,54428
111187,11489.198251404854,1671626718.427,511,99195,54428
111188,11489.204452446445,1671626718.427,511,99183,54446
111188,11489.210653488037,1671626718.427,511,99183,54446
111189,11489.216854529628,1671626718.427,512,99225,54436
111189,11489.22305557122,1671626718.427,512,99225,54436
111190,11489.22925661281,1671626718.427,511,99251,54449
111190,11489.235457654402,1671626718.427,511,99251,54449
111191,11489.241658695993,1671626718.427,512,99223,54416
111191,11489.247859737585,1671626718.427,512,99223,54416
111192,11489.304466237854,1671626718.508,511,99148,54391
111192,11489.312727162986,1671626718.508,511,99148,54391
111193,11489.320988088117,1671626718.508,515,99100,54385
111193,11489.329249013248,1671626718.508,515,99100,54385
111194,11489.33750993838,1671626718.508,510,99084,54387
111194,11489.34577086351,1671626718.508,510,99084,54387
111195,11489.354031788642,1671626718.508,510,98990,54362
111195,11489.362292713773,1671626718.508,510,98990,54362
111196,11489.370553638904,1671626718.508,511,99043,54348
111196,11489.378814564036,1671626718.508,511,99043,54348
111197,11489.387075489167,1671626718.508,510,99022,54362
111197,11489.395336414298,1671626718.508,510,99022,54362
111198,11489.40359733943,1671626718.606,512,99015,54364
111198,11489.41185826456,1671626718.606,512,99015,54364
111199,11489.420119189692,1671626718.606,511,99022,54367
111199,11489.428380114823,1671626718.606,511,99022,54367
111200,11489.436641039954,1671626718.606,512,98991,54368
111200,11489.444901965086,1671626718.606,512,98991,54368
111201,11489.453162890217,1671626718.606,512,98989,54352
111201,11489.461423815348,1671626718.606,512,98989,54352
111202,11489.449379170519,1671626718.606,512,99031,54372
111202,11489.456910539106,1671626718.606,512,99031,54372
111203,11489.464441907692,1671626718.606,514,99100,54346
111203,11489.471973276279,1671626718.606,514,99100,54346
111204,11489.479504644865,1671626718.734,512,99024,54347
111204,11489.487036013452,1671626718.734,512,99024,54347
111205,11489.494567382038,1671626718.734,514,99087,54357
111205,11489.502098750625,1671626718.734,514,99087,54357
111206,11489.509630119212,1671626718.734,511,99041,54372
111206,11489.517161487798,1671626718.734,511,99041,54372
111207,11489.524692856385,1671626718.734,514,99041,54373
111207,11489.532224224971,1671626718.734,514,99041,54373
111208,11489.539755593558,1671626718.734,514,99096,54384
111208,11489.547286962144,1671626718.734,514,99096,54384
111209,11489.554818330731,1671626718.734,514,99042,54370
111209,11489.562349699318,1671626718.734,514,99042,54370
111210,11489.569881067904,1671626718.799,511,99129,54375
111210,11489.57741243649,1671626718.799,511,99129,54375
111211,11489.584943805077,1671626718.799,512,99110,54368
111211,11489.592475173664,1671626718.799,512,99110,54368
111212,11489.631912787363,1671626718.799,511,99108,54375
111212,11489.638469183647,1671626718.799,511,99108,54375
111213,11489.64502557993,1671626718.799,510,99144,54373
111213,11489.651581976213,1671626718.799,510,99144,54373
111214,11489.658138372497,1671626718.799,512,99102,54370
111214,11489.66469476878,1671626718.799,512,99102,54370
111215,11489.671251165064,1671626718.799,512,99075,54370
111215,11489.677807561347,1671626718.799,512,99075,54370
111216,11489.684363957631,1671626718.894,511,99123,54391
111216,11489.690920353914,1671626718.894,511,99123,54391
111217,11489.697476750198,1671626718.894,511,99101,54365
111217,11489.704033146481,1671626718.894,511,99101,54365
111218,11489.710589542765,1671626718.894,511,99185,54398
111218,11489.717145939048,1671626718.894,511,99185,54398
111219,11489.723702335332,1671626718.894,511,99153,54380
111219,11489.730258731615,1671626718.894,511,99153,54380
111220,11489.736815127899,1671626718.894,509,99176,54402
111220,11489.743371524182,1671626718.894,509,99176,54402
111221,11489.749927920466,1671626718.894,512,99158,54398
111221,11489.75648431675,1671626718.894,512,99158,54398
111222,11489.769735926779,1671626718.985,512,99121,54388
111222,11489.777077874482,1671626718.985,512,99121,54388
111223,11489.784419822185,1671626718.985,512,99153,54394
111223,11489.791761769888,1671626718.985,512,99153,54394
111224,11489.79910371759,1671626718.985,512,99170,54404
111224,11489.806445665294,1671626718.985,512,99170,54404
111225,11489.813787612997,1671626718.985,511,99140,54413
111225,11489.8211295607,1671626718.985,511,99140,54413
111226,11489.828471508403,1671626718.985,511,99256,54416
111226,11489.835813456106,1671626718.985,511,99256,54416
111227,11489.843155403809,1671626718.985,510,99250,54416
111227,11489.850497351512,1671626718.985,510,99250,54416
111228,11489.857839299215,1671626719.077,512,99307,54430
111228,11489.865181246918,1671626719.077,512,99307,54430
111229,11489.872523194621,1671626719.077,510,99265,54403
111229,11489.879865142324,1671626719.077,510,99265,54403
111230,11489.887207090027,1671626719.077,511,99253,54421
111230,11489.89454903773,1671626719.077,511,99253,54421
111231,11489.901890985433,1671626719.077,512,99251,54423
111231,11489.909232933136,1671626719.077,512,99251,54423
111232,11489.922115259378,1671626719.077,511,99236,54442
111232,11489.929310259815,1671626719.077,511,99236,54442
111233,11489.936505260252,1671626719.077,514,99262,54455
111233,11489.943700260688,1671626719.077,514,99262,54455
111234,11489.950895261125,1671626719.181,512,99299,54438
111234,11489.958090261562,1671626719.181,512,99299,54438
111235,11489.965285261998,1671626719.181,512,99333,54470
111235,11489.972480262435,1671626719.181,512,99333,54470
111236,11489.979675262872,1671626719.181,511,99360,54463
111236,11489.986870263308,1671626719.181,511,99360,54463
111237,11489.994065263745,1671626719.181,510,99347,54467
111237,11490.001260264182,1671626719.181,510,99347,54467
111238,11490.008455264619,1671626719.181,511,99301,54439
111238,11490.015650265055,1671626719.181,511,99301,54439
111239,11490.022845265492,1671626719.181,512,99287,54419
111239,11490.030040265929,1671626719.181,512,99287,54419
111240,11490.037235266365,1671626719.267,511,99264,54421
111240,11490.044430266802,1671626719.267,511,99264,54421
111241,11490.051625267239,1671626719.267,511,99200,54379
111241,11490.058820267675,1671626719.267,511,99200,54379
111242,11490.085449257256,1671626719.267,514,99135,54383
111242,11490.092607224367,1671626719.267,514,99135,54383
111243,11490.099765191479,1671626719.267,512,99173,54376
111243,11490.10692315859,1671626719.267,512,99173,54376
111244,11490.114081125701,1671626719.267,510,99135,54379
111244,11490.121239092812,1671626719.267,510,99135,54379
111245,11490.128397059923,1671626719.267,511,99148,54361
111245,11490.135555027035,1671626719.267,511,99148,54361
111246,11490.142712994146,1671626719.374,511,99107,54370
111246,11490.149870961257,1671626719.374,511,99107,54370
111247,11490.157028928368,1671626719.374,512,99129,54368
111247,11490.16418689548,1671626719.374,512,99129,54368
111248,11490.17134486259,1671626719.374,512,99141,54393
111248,11490.178502829702,1671626719.374,512,99141,54393
111249,11490.185660796813,1671626719.374,512,99142,54361
111249,11490.192818763924,1671626719.374,512,99142,54361
111250,11490.199976731035,1671626719.374,511,99149,54380
111250,11490.207134698147,1671626719.374,511,99149,54380
111251,11490.214292665258,1671626719.374,512,99141,54396
111251,11490.221450632369,1671626719.374,512,99141,54396
111252,11490.251212251196,1671626719.447,512,99189,54383
111252,11490.25953550763,1671626719.447,512,99189,54383
111253,11490.267858764064,1671626719.447,511,99217,54392
111253,11490.276182020498,1671626719.447,511,99217,54392
111254,11490.284505276932,1671626719.447,511,99221,54406
111254,11490.292828533366,1671626719.447,511,99221,54406
111255,11490.3011517898,1671626719.447,512,99214,54415
111255,11490.309475046233,1671626719.447,512,99214,54415
111256,11490.317798302667,1671626719.447,512,99252,54396
111256,11490.326121559101,1671626719.447,512,99252,54396
111257,11490.334444815535,1671626719.447,512,99185,54376
111257,11490.342768071969,1671626719.447,512,99185,54376
111258,11490.351091328403,1671626719.547,514,99236,54392
111258,11490.359414584836,1671626719.547,514,99236,54392
111259,11490.36773784127,1671626719.547,511,99219,54377
111259,11490.376061097704,1671626719.547,511,99219,54377
111260,11490.384384354138,1671626719.547,512,99248,54390
111260,11490.392707610572,1671626719.547,512,99248,54390
111261,11490.401030867006,1671626719.547,511,99237,54379
111261,11490.40935412344,1671626719.547,511,99237,54379
111262,11490.390427767314,1671626719.547,511,99217,54384
111262,11490.398111696417,1671626719.547,511,99217,54384
111263,11490.40579562552,1671626719.547,510,99292,54403
111263,11490.413479554623,1671626719.547,510,99292,54403
111264,11490.421163483727,1671626719.642,514,99168,54388
111264,11490.42884741283,1671626719.642,514,99168,54388
111265,11490.436531341933,1671626719.642,511,99313,54407
111265,11490.444215271036,1671626719.642,511,99313,54407
111266,11490.45189920014,1671626719.642,510,99270,54398
111266,11490.459583129243,1671626719.642,510,99270,54398
111267,11490.467267058346,1671626719.642,511,99313,54426
111267,11490.47495098745,1671626719.642,511,99313,54426
111268,11490.482634916552,1671626719.642,510,99299,54396
111268,11490.490318845656,1671626719.642,510,99299,54396
111269,11490.498002774759,1671626719.642,512,99298,54419
111269,11490.505686703862,1671626719.642,512,99298,54419
111270,11490.513370632965,1671626719.746,512,99333,54399
111270,11490.521054562068,1671626719.746,512,99333,54399
111271,11490.528738491172,1671626719.746,514,99335,54408
111271,11490.536422420275,1671626719.746,514,99335,54408
111272,11490.553314825156,1671626719.746,515,99334,54448
111272,11490.561218584975,1671626719.746,515,99334,54448
111273,11490.569122344794,1671626719.746,514,99353,54435
111273,11490.577026104613,1671626719.746,514,99353,54435
111274,11490.584929864432,1671626719.746,512,99389,54420
111274,11490.59283362425,1671626719.746,512,99389,54420
111275,11490.60073738407,1671626719.746,512,99441,54445
111275,11490.608641143888,1671626719.746,512,99441,54445
111276,11490.616544903707,1671626719.829,512,99422,54449
111276,11490.624448663526,1671626719.829,512,99422,54449
111277,11490.632352423345,1671626719.829,511,99421,54433
111277,11490.640256183164,1671626719.829,511,99421,54433
111278,11490.648159942983,1671626719.829,512,99433,54472
111278,11490.656063702801,1671626719.829,512,99433,54472
111279,11490.66396746262,1671626719.829,512,99471,54460
111279,11490.67187122244,1671626719.829,512,99471,54460
111280,11490.679774982258,1671626719.829,512,99460,54465
111280,11490.687678742077,1671626719.829,512,99460,54465
111281,11490.695582501896,1671626719.829,512,99521,54466
111281,11490.703486261715,1671626719.829,512,99521,54466
111282,11490.703920988153,1671626719.926,512,99499,54462
111282,11490.710424440469,1671626719.926,512,99499,54462
111283,11490.716927892785,1671626719.926,512,99514,54460
111283,11490.7234313451,1671626719.926,512,99514,54460
111284,11490.729934797417,1671626719.926,510,99517,54468
111284,11490.736438249733,1671626719.926,510,99517,54468
111285,11490.742941702048,1671626719.926,512,99446,54431
111285,11490.749445154364,1671626719.926,512,99446,54431
111286,11490.75594860668,1671626719.926,511,99358,54404
111286,11490.762452058996,1671626719.926,511,99358,54404
111287,11490.768955511312,1671626719.926,514,99337,54381
111287,11490.775458963628,1671626719.926,514,99337,54381
111288,11490.781962415944,1671626720.016,512,99318,54373
111288,11490.78846586826,1671626720.016,512,99318,54373
111289,11490.794969320576,1671626720.016,510,99263,54378
111289,11490.801472772891,1671626720.016,510,99263,54378
111290,11490.807976225207,1671626720.016,511,99275,54357
111290,11490.814479677523,1671626720.016,511,99275,54357
111291,11490.820983129839,1671626720.016,512,99245,54346
111291,11490.827486582155,1671626720.016,512,99245,54346
111292,11490.86182355585,1671626720.016,511,99242,54364
111292,11490.868914672896,1671626720.016,511,99242,54364
111293,11490.876005789942,1671626720.016,511,99203,54353
111293,11490.883096906988,1671626720.016,511,99203,54353
111294,11490.890188024034,1671626720.102,511,99279,54365
111294,11490.89727914108,1671626720.102,511,99279,54365
111295,11490.904370258126,1671626720.102,512,99250,54344
111295,11490.911461375172,1671626720.102,512,99250,54344
111296,11490.918552492218,1671626720.102,511,99258,54367
111296,11490.925643609264,1671626720.102,511,99258,54367
111297,11490.93273472631,1671626720.102,514,99281,54376
111297,11490.939825843356,1671626720.102,514,99281,54376
111298,11490.946916960402,1671626720.102,512,99247,54359
111298,11490.954008077448,1671626720.102,512,99247,54359
111299,11490.961099194494,1671626720.102,511,99268,54374
111299,11490.96819031154,1671626720.102,511,99268,54374
111300,11490.975281428586,1671626720.195,511,99297,54382
111300,11490.982372545632,1671626720.195,511,99297,54382
111301,11490.989463662678,1671626720.195,512,99256,54383
111301,11490.996554779724,1671626720.195,512,99256,54383
111302,11491.00861024011,1671626720.195,512,99275,54364
111302,11491.015720429728,1671626720.195,512,99275,54364
111303,11491.022830619348,1671626720.195,512,99343,54366
111303,11491.029940808967,1671626720.195,512,99343,54366
111304,11491.037050998586,1671626720.195,512,99339,54374
111304,11491.044161188205,1671626720.195,512,99339,54374
111305,11491.051271377824,1671626720.195,512,99242,54368
111305,11491.058381567444,1671626720.195,512,99242,54368
111306,11491.065491757063,1671626720.305,512,99334,54387
111306,11491.072601946682,1671626720.305,512,99334,54387
111307,11491.079712136301,1671626720.305,514,99291,54360
111307,11491.08682232592,1671626720.305,514,99291,54360
111308,11491.09393251554,1671626720.305,511,99253,54363
111308,11491.101042705159,1671626720.305,511,99253,54363
111309,11491.108152894778,1671626720.305,511,99308,54372
111309,11491.115263084397,1671626720.305,511,99308,54372
111310,11491.122373274016,1671626720.305,511,99354,54371
111310,11491.129483463636,1671626720.305,511,99354,54371
111311,11491.136593653255,1671626720.305,511,99302,54353
111311,11491.143703842874,1671626720.305,511,99302,54353
111312,11491.182127574955,1671626720.393,511,99348,54365
111312,11491.190662024826,1671626720.393,511,99348,54365
111313,11491.199196474698,1671626720.393,511,99325,54374
111313,11491.207730924569,1671626720.393,511,99325,54374
111314,11491.21626537444,1671626720.393,511,99338,54363
111314,11491.224799824311,1671626720.393,511,99338,54363
111315,11491.233334274182,1671626720.393,511,99386,54380
111315,11491.241868724053,1671626720.393,511,99386,54380
111316,11491.250403173924,1671626720.393,511,99413,54390
111316,11491.258937623796,1671626720.393,511,99413,54390
111317,11491.267472073667,1671626720.393,512,99368,54389
111317,11491.276006523538,1671626720.393,512,99368,54389
111318,11491.28454097341,1671626720.479,511,99417,54381
111318,11491.29307542328,1671626720.479,511,99417,54381
111319,11491.301609873151,1671626720.479,514,99399,54395
111319,11491.310144323023,1671626720.479,514,99399,54395
111320,11491.318678772894,1671626720.479,511,99473,54395
111320,11491.327213222765,1671626720.479,511,99473,54395
111321,11491.335747672636,1671626720.479,512,99434,54392
111321,11491.344282122507,1671626720.479,512,99434,54392
111322,11491.325904226765,1671626720.479,512,99459,54393
111322,11491.332656597357,1671626720.479,512,99459,54393
111323,11491.339408967948,1671626720.479,512,99494,54400
111323,11491.346161338539,1671626720.479,512,99494,54400
111324,11491.35291370913,1671626720.578,512,99498,54403
111324,11491.359666079721,1671626720.578,512,99498,54403
111325,11491.366418450312,1671626720.578,512,99570,54413
111325,11491.373170820903,1671626720.578,512,99570,54413
111326,11491.379923191495,1671626720.578,512,99516,54404
111326,11491.386675562086,1671626720.578,512,99516,54404
111327,11491.393427932677,1671626720.578,514,99544,54424
111327,11491.400180303268,1671626720.578,514,99544,54424
111328,11491.406932673859,1671626720.578,511,99561,54424
111328,11491.41368504445,1671626720.578,511,99561,54424
111329,11491.420437415041,1671626720.578,511,99605,54450
111329,11491.427189785632,1671626720.578,511,99605,54450
111330,11491.433942156224,1671626720.673,512,99576,54419
111330,11491.440694526815,1671626720.673,512,99576,54419
111331,11491.447446897406,1671626720.673,511,99599,54448
111331,11491.454199267997,1671626720.673,511,99599,54448
111332,11491.485579116494,1671626720.673,511,99535,54416
111332,11491.493075477647,1671626720.673,511,99535,54416
111333,11491.5005718388,1671626720.673,514,99441,54378
111333,11491.508068199953,1671626720.673,514,99441,54378
111334,11491.515564561107,1671626720.673,512,99400,54349
111334,11491.52306092226,1671626720.673,512,99400,54349
111335,11491.530557283413,1671626720.673,512,99362,54317
111335,11491.538053644566,1671626720.673,512,99362,54317
111336,11491.54555000572,1671626720.766,514,99255,54306
111336,11491.553046366873,1671626720.766,514,99255,54306
111337,11491.560542728026,1671626720.766,511,99234,54287
111337,11491.56803908918,1671626720.766,511,99234,54287
111338,11491.575535450333,1671626720.766,512,99231,54316
111338,11491.583031811486,1671626720.766,512,99231,54316
111339,11491.59052817264,1671626720.766,511,99276,54294
111339,11491.598024533792,1671626720.766,511,99276,54294
111340,11491.605520894946,1671626720.766,511,99245,54299
111340,11491.613017256099,1671626720.766,511,99245,54299
111341,11491.620513617252,1671626720.766,512,99210,54283
111341,11491.628009978405,1671626720.766,512,99210,54283
111342,11491.641847106608,1671626720.859,514,99184,54286
111342,11491.649132716022,1671626720.859,514,99184,54286
111343,11491.656418325436,1671626720.859,514,99217,54299
111343,11491.66370393485,1671626720.859,514,99217,54299
111344,11491.670989544264,1671626720.859,512,99242,54304
111344,11491.678275153678,1671626720.859,512,99242,54304
111345,11491.685560763091,1671626720.859,511,99294,54308
111345,11491.692846372505,1671626720.859,511,99294,54308
111346,11491.70013198192,1671626720.859,511,99232,54299
111346,11491.707417591333,1671626720.859,511,99232,54299
111347,11491.714703200747,1671626720.859,512,99303,54281
111347,11491.72198881016,1671626720.859,512,99303,54281
111348,11491.729274419575,1671626720.959,512,99277,54300
111348,11491.736560028989,1671626720.959,512,99277,54300
111349,11491.743845638402,1671626720.959,512,99303,54305
111349,11491.751131247816,1671626720.959,512,99303,54305
111350,11491.75841685723,1671626720.959,512,99273,54296
111350,11491.765702466644,1671626720.959,512,99273,54296
111351,11491.772988076058,1671626720.959,511,99317,54305
111351,11491.780273685472,1671626720.959,511,99317,54305
111352,11491.802717311875,1671626720.959,514,99281,54296
111352,11491.810506560076,1671626720.959,514,99281,54296
111353,11491.818295808276,1671626720.959,512,99269,54286
111353,11491.826085056477,1671626720.959,512,99269,54286
111354,11491.833874304677,1671626721.047,511,99276,54284
111354,11491.841663552877,1671626721.047,511,99276,54284
111355,11491.849452801078,1671626721.047,510,99321,54274
111355,11491.857242049278,1671626721.047,510,99321,54274
111356,11491.865031297479,1671626721.047,510,99296,54294
111356,11491.87282054568,1671626721.047,510,99296,54294
111357,11491.88060979388,1671626721.047,512,99263,54285
111357,11491.88839904208,1671626721.047,512,99263,54285
111358,11491.89618829028,1671626721.047,512,99290,54284
111358,11491.90397753848,1671626721.047,512,99290,54284
111359,11491.911766786681,1671626721.047,511,99259,54287
111359,11491.919556034882,1671626721.047,511,99259,54287
111360,11491.927345283082,1671626721.144,511,99311,54292
111360,11491.935134531283,1671626721.144,511,99311,54292
111361,11491.942923779483,1671626721.144,511,99292,54302
111361,11491.950713027683,1671626721.144,511,99292,54302
111362,11491.955484577871,1671626721.144,512,99338,54309
111362,11491.962828698484,1671626721.144,512,99338,54309
111363,11491.970172819098,1671626721.144,511,99310,54297
111363,11491.97751693971,1671626721.144,511,99310,54297
111364,11491.984861060324,1671626721.144,511,99368,54295
111364,11491.992205180937,1671626721.144,511,99368,54295
111365,11491.99954930155,1671626721.144,511,99310,54302
111365,11492.006893422164,1671626721.144,511,99310,54302
111366,11492.014237542777,1671626721.229,514,99396,54305
111366,11492.02158166339,1671626721.229,514,99396,54305
111367,11492.028925784003,1671626721.229,512,99367,54315
111367,11492.036269904616,1671626721.229,512,99367,54315
111368,11492.04361402523,1671626721.229,512,99401,54326
111368,11492.050958145843,1671626721.229,512,99401,54326
111369,11492.058302266456,1671626721.229,512,99440,54310
111369,11492.06564638707,1671626721.229,512,99440,54310
111370,11492.072990507682,1671626721.229,511,99468,54338
111370,11492.080334628296,1671626721.229,511,99468,54338
111371,11492.087678748909,1671626721.229,511,99449,54339
111371,11492.095022869522,1671626721.229,511,99449,54339
111372,11492.104188423707,1671626721.324,510,99457,54335
111372,11492.110846266034,1671626721.324,510,99457,54335
111373,11492.11750410836,1671626721.324,511,99435,54330
111373,11492.124161950687,1671626721.324,511,99435,54330
111374,11492.130819793014,1671626721.324,514,99537,54354
111374,11492.13747763534,1671626721.324,514,99537,54354
111375,11492.144135477667,1671626721.324,512,99511,54349
111375,11492.150793319994,1671626721.324,512,99511,54349
111376,11492.15745116232,1671626721.324,512,99526,54345
111376,11492.164109004647,1671626721.324,512,99526,54345
111377,11492.170766846973,1671626721.324,512,99541,54357
111377,11492.1774246893,1671626721.324,512,99541,54357
111378,11492.184082531627,1671626721.421,511,99583,54351
111378,11492.190740373953,1671626721.421,511,99583,54351
111379,11492.19739821628,1671626721.421,512,99558,54332
111379,11492.204056058607,1671626721.421,512,99558,54332
111380,11492.210713900933,1671626721.421,514,99472,54329
111380,11492.21737174326,1671626721.421,514,99472,54329
111381,11492.224029585586,1671626721.421,512,99438,54314
111381,11492.230687427913,1671626721.421,512,99438,54314
111382,11492.265040755352,1671626721.421,512,99336,54260
111382,11492.272580150558,1671626721.421,512,99336,54260
111383,11492.280119545765,1671626721.421,510,99281,54239
111383,11492.287658940972,1671626721.421,510,99281,54239
111384,11492.295198336178,1671626721.511,511,99281,54231
111384,11492.302737731385,1671626721.511,511,99281,54231
111385,11492.310277126591,1671626721.511,512,99242,54206
111385,11492.317816521798,1671626721.511,512,99242,54206
111386,11492.325355917004,1671626721.511,511,99219,54212
111386,11492.33289531221,1671626721.511,511,99219,54212
111387,11492.340434707417,1671626721.511,512,99143,54216
111387,11492.347974102624,1671626721.511,512,99143,54216
111388,11492.35551349783,1671626721.511,510,99246,54213
111388,11492.363052893037,1671626721.511,510,99246,54213
111389,11492.370592288244,1671626721.511,512,99204,54212
111389,11492.37813168345,1671626721.511,512,99204,54212
111390,11492.385671078657,1671626721.607,511,99167,54216
111390,11492.393210473863,1671626721.607,511,99167,54216
111391,11492.40074986907,1671626721.607,511,99251,54222
111391,11492.408289264276,1671626721.607,511,99251,54222
111392,11492.41926397469,1671626721.607,511,99232,54231
111392,11492.426631191214,1671626721.607,511,99232,54231
111393,11492.433998407738,1671626721.607,512,99193,54196
111393,11492.441365624261,1671626721.607,512,99193,54196
111394,11492.448732840785,1671626721.607,511,99233,54239
111394,11492.456100057309,1671626721.607,511,99233,54239
111395,11492.463467273832,1671626721.607,512,99204,54206
111395,11492.470834490356,1671626721.607,512,99204,54206
111396,11492.47820170688,1671626721.705,510,99270,54238
111396,11492.485568923403,1671626721.705,510,99270,54238
111397,11492.492936139926,1671626721.705,514,99249,54207
111397,11492.50030335645,1671626721.705,514,99249,54207
111398,11492.507670572973,1671626721.705,511,99252,54224
111398,11492.515037789497,1671626721.705,511,99252,54224
111399,11492.52240500602,1671626721.705,511,99275,54222
111399,11492.529772222544,1671626721.705,511,99275,54222
111400,11492.537139439068,1671626721.705,511,99296,54250
111400,11492.544506655591,1671626721.705,511,99296,54250
111401,11492.551873872115,1671626721.705,510,99272,54198
111401,11492.559241088638,1671626721.705,510,99272,54198
111402,11492.580582676055,1671626721.83,510,99190,54209
111402,11492.588159926476,1671626721.83,510,99190,54209
111403,11492.595737176896,1671626721.83,510,99191,54204
111403,11492.603314427317,1671626721.83,510,99191,54204
111404,11492.610891677738,1671626721.83,510,99239,54202
111404,11492.618468928158,1671626721.83,510,99239,54202
111405,11492.626046178579,1671626721.83,512,99221,54180
111405,11492.633623429,1671626721.83,512,99221,54180
111406,11492.64120067942,1671626721.83,512,99224,54185
111406,11492.64877792984,1671626721.83,512,99224,54185
111407,11492.656355180261,1671626721.83,511,99279,54214
111407,11492.663932430682,1671626721.83,511,99279,54214
111408,11492.671509681102,1671626721.909,510,99262,54196
111408,11492.679086931523,1671626721.909,510,99262,54196
111409,11492.686664181943,1671626721.909,510,99238,54204
111409,11492.694241432364,1671626721.909,510,99238,54204
111410,11492.701818682785,1671626721.909,511,99246,54189
111410,11492.709395933205,1671626721.909,511,99246,54189
111411,11492.716973183626,1671626721.909,511,99287,54198
111411,11492.724550434046,1671626721.909,511,99287,54198
111412,11492.757391066962,1671626721.909,512,99347,54212
111412,11492.763781818292,1671626721.909,512,99347,54212
111413,11492.770172569622,1671626721.909,512,99354,54223
111413,11492.776563320953,1671626721.909,512,99354,54223
111414,11492.782954072283,1671626721.987,512,99346,54233
111414,11492.789344823614,1671626721.987,512,99346,54233
111415,11492.795735574944,1671626721.987,512,99330,54216
111415,11492.802126326274,1671626721.987,512,99330,54216
111416,11492.808517077605,1671626721.987,512,99354,54221
111416,11492.814907828935,1671626721.987,512,99354,54221
111417,11492.821298580266,1671626721.987,510,99342,54229
111417,11492.827689331596,1671626721.987,510,99342,54229
111418,11492.834080082926,1671626721.987,511,99393,54247
111418,11492.840470834257,1671626721.987,511,99393,54247
111419,11492.846861585587,1671626721.987,511,99396,54237
111419,11492.853252336918,1671626721.987,511,99396,54237
111420,11492.859643088248,1671626722.073,511,99391,54238
111420,11492.866033839578,1671626722.073,511,99391,54238
111421,11492.872424590909,1671626722.073,511,99403,54250
111421,11492.87881534224,1671626722.073,511,99403,54250
111422,11492.890179093334,1671626722.073,511,99468,54258
111422,11492.896703529805,1671626722.073,511,99468,54258
111423,11492.903227966275,1671626722.073,512,99493,54277
111423,11492.909752402746,1671626722.073,512,99493,54277
111424,11492.916276839216,1671626722.073,511,99504,54256
111424,11492.922801275687,1671626722.073,511,99504,54256
111425,11492.929325712157,1671626722.073,511,99464,54243
111425,11492.935850148628,1671626722.073,511,99464,54243
111426,11492.942374585098,1671626722.17,512,99346,54232
111426,11492.948899021569,1671626722.17,512,99346,54232
111427,11492.95542345804,1671626722.17,511,99330,54192
111427,11492.96194789451,1671626722.17,511,99330,54192
111428,11492.96847233098,1671626722.17,514,99216,54163
111428,11492.97499676745,1671626722.17,514,99216,54163
111429,11492.981521203921,1671626722.17,514,99187,54144
111429,11492.988045640392,1671626722.17,514,99187,54144
111430,11492.994570076862,1671626722.17,512,99184,54141
111430,11493.001094513333,1671626722.17,512,99184,54141
111431,11493.007618949803,1671626722.17,512,99136,54142
111431,11493.014143386274,1671626722.17,512,99136,54142
111432,11493.045940190646,1671626722.275,512,99148,54128
111432,11493.053513739284,1671626722.275,512,99148,54128
111433,11493.06108728792,1671626722.275,510,99153,54119
111433,11493.068660836558,1671626722.275,510,99153,54119
111434,11493.076234385195,1671626722.275,511,99077,54129
111434,11493.083807933832,1671626722.275,511,99077,54129
111435,11493.091381482469,1671626722.275,511,99130,54149
111435,11493.098955031106,1671626722.275,511,99130,54149
111436,11493.106528579743,1671626722.275,512,99183,54128
111436,11493.11410212838,1671626722.275,512,99183,54128
111437,11493.121675677017,1671626722.275,512,99146,54123
111437,11493.129249225654,1671626722.275,512,99146,54123
111438,11493.136822774291,1671626722.355,512,99163,54127
111438,11493.144396322929,1671626722.355,512,99163,54127
111439,11493.151969871566,1671626722.355,512,99221,54142
111439,11493.159543420203,1671626722.355,512,99221,54142
111440,11493.16711696884,1671626722.355,511,99178,54135
111440,11493.174690517477,1671626722.355,511,99178,54135
111441,11493.182264066114,1671626722.355,510,99208,54140
111441,11493.189837614751,1671626722.355,510,99208,54140
111442,11493.202935171448,1671626722.355,512,99239,54142
111442,11493.209275382993,1671626722.355,512,99239,54142
111443,11493.215615594538,1671626722.355,511,99256,54122
111443,11493.221955806082,1671626722.355,511,99256,54122
111444,11493.228296017627,1671626722.447,510,99229,54130
111444,11493.234636229172,1671626722.447,510,99229,54130
111445,11493.240976440717,1671626722.447,512,99194,54128
111445,11493.247316652261,1671626722.447,512,99194,54128
111446,11493.253656863806,1671626722.447,510,99246,54135
111446,11493.25999707535,1671626722.447,510,99246,54135
111447,11493.266337286896,1671626722.447,511,99213,54122
111447,11493.27267749844,1671626722.447,511,99213,54122
111448,11493.279017709985,1671626722.447,510,99229,54137
111448,11493.28535792153,1671626722.447,510,99229,54137
111449,11493.291698133075,1671626722.447,512,99169,54126
111449,11493.29803834462,1671626722.447,512,99169,54126
111450,11493.304378556164,1671626722.546,514,99226,54124
111450,11493.310718767709,1671626722.546,514,99226,54124
111451,11493.317058979253,1671626722.546,510,99248,54125
111451,11493.323399190798,1671626722.546,510,99248,54125
111452,11493.356100832867,1671626722.546,511,99244,54130
111452,11493.363717256052,1671626722.546,511,99244,54130
111453,11493.371333679237,1671626722.546,514,99269,54139
111453,11493.378950102422,1671626722.546,514,99269,54139
111454,11493.386566525607,1671626722.546,512,99254,54137
111454,11493.394182948792,1671626722.546,512,99254,54137
111455,11493.401799371977,1671626722.546,510,99268,54140
111455,11493.409415795162,1671626722.546,510,99268,54140
111456,11493.417032218347,1671626722.638,511,99286,54131
111456,11493.424648641532,1671626722.638,511,99286,54131
111457,11493.432265064717,1671626722.638,510,99304,54147
111457,11493.439881487902,1671626722.638,510,99304,54147
111458,11493.447497911087,1671626722.638,511,99341,54149
111458,11493.455114334272,1671626722.638,511,99341,54149
111459,11493.462730757457,1671626722.638,511,99352,54155
111459,11493.470347180642,1671626722.638,511,99352,54155
111460,11493.477963603827,1671626722.638,511,99412,54168
111460,11493.485580027012,1671626722.638,511,99412,54168
111461,11493.493196450198,1671626722.638,511,99409,54181
111461,11493.500812873383,1671626722.638,511,99409,54181
111462,11493.51374860424,1671626722.738,511,99373,54158
111462,11493.520906842605,1671626722.738,511,99373,54158
111463,11493.52806508097,1671626722.738,511,99402,54175
111463,11493.535223319333,1671626722.738,511,99402,54175
111464,11493.542381557698,1671626722.738,510,99448,54188
111464,11493.549539796062,1671626722.738,510,99448,54188
111465,11493.556698034427,1671626722.738,511,99431,54184
111465,11493.56385627279,1671626722.738,511,99431,54184
111466,11493.571014511155,1671626722.738,510,99467,54185
111466,11493.57817274952,1671626722.738,510,99467,54185
111467,11493.585330987884,1671626722.738,511,99451,54206
111467,11493.592489226248,1671626722.738,511,99451,54206
111468,11493.599647464613,1671626722.828,511,99477,54186
111468,11493.606805702977,1671626722.828,511,99477,54186
111469,11493.613963941341,1671626722.828,511,99442,54194
111469,11493.621122179706,1671626722.828,511,99442,54194
111470,11493.62828041807,1671626722.828,511,99526,54198
111470,11493.635438656434,1671626722.828,511,99526,54198
111471,11493.642596894799,1671626722.828,511,99424,54165
111471,11493.649755133163,1671626722.828,511,99424,54165
111472,11493.673857928483,1671626722.828,511,99367,54136
111472,11493.680928834596,1671626722.828,511,99367,54136
111473,11493.687999740709,1671626722.828,510,99306,54121
111473,11493.695070646821,1671626722.828,510,99306,54121
111474,11493.702141552934,1671626722.933,510,99246,54084
111474,11493.709212459047,1671626722.933,510,99246,54084
111475,11493.71628336516,1671626722.933,509,99256,54109
111475,11493.723354271273,1671626722.933,509,99256,54109
111476,11493.730425177386,1671626722.933,512,99162,54059
111476,11493.737496083499,1671626722.933,512,99162,54059
111477,11493.744566989611,1671626722.933,512,99121,54056
111477,11493.751637895724,1671626722.933,512,99121,54056
111478,11493.758708801837,1671626722.933,511,99096,54054
111478,11493.76577970795,1671626722.933,511,99096,54054
111479,11493.772850614063,1671626722.933,511,99133,54053
111479,11493.779921520176,1671626722.933,511,99133,54053
111480,11493.786992426289,1671626723.026,510,99094,54042
111480,11493.794063332401,1671626723.026,510,99094,54042
111481,11493.801134238514,1671626723.026,511,99099,54052
111481,11493.808205144627,1671626723.026,511,99099,54052
111482,11493.840454256517,1671626723.026,511,99147,54026
111482,11493.84800405419,1671626723.026,511,99147,54026
111483,11493.855553851865,1671626723.026,511,99087,54044
111483,11493.863103649539,1671626723.026,511,99087,54044
111484,11493.870653447213,1671626723.026,512,99156,54046
111484,11493.878203244887,1671626723.026,512,99156,54046
111485,11493.885753042561,1671626723.026,510,99123,54053
111485,11493.893302840235,1671626723.026,510,99123,54053
111486,11493.90085263791,1671626723.119,510,99213,54059
111486,11493.908402435583,1671626723.119,510,99213,54059
111487,11493.915952233257,1671626723.119,509,99218,54062
111487,11493.923502030932,1671626723.119,509,99218,54062
111488,11493.931051828606,1671626723.119,511,99098,54052
111488,11493.93860162628,1671626723.119,511,99098,54052
111489,11493.946151423954,1671626723.119,509,99160,54049
111489,11493.953701221628,1671626723.119,509,99160,54049
111490,11493.961251019302,1671626723.119,509,99181,54039
111490,11493.968800816976,1671626723.119,509,99181,54039
111491,11493.97635061465,1671626723.119,510,99117,54042
111491,11493.983900412324,1671626723.119,510,99117,54042
111492,11493.995238888752,1671626723.198,511,99081,54031
111492,11494.002516092605,1671626723.198,511,99081,54031
111493,11494.009793296458,1671626723.198,509,99114,54029
111493,11494.017070500311,1671626723.198,509,99114,54029
111494,11494.024347704164,1671626723.198,511,99137,54035
111494,11494.031624908017,1671626723.198,511,99137,54035
111495,11494.03890211187,1671626723.198,512,99114,54017
111495,11494.046179315723,1671626723.198,512,99114,54017
111496,11494.053456519576,1671626723.198,510,99119,54047
111496,11494.060733723429,1671626723.198,510,99119,54047
111497,11494.068010927282,1671626723.198,511,99125,54031
111497,11494.075288131135,1671626723.198,511,99125,54031
111498,11494.082565334988,1671626723.322,511,99137,54028
111498,11494.08984253884,1671626723.322,511,99137,54028
111499,11494.097119742693,1671626723.322,511,99141,54029
111499,11494.104396946546,1671626723.322,511,99141,54029
111500,11494.1116741504,1671626723.322,511,99177,54039
111500,11494.118951354252,1671626723.322,511,99177,54039
111501,11494.126228558105,1671626723.322,512,99197,54051
111501,11494.133505761958,1671626723.322,512,99197,54051
111502,11494.159046086048,1671626723.322,510,99208,54030
111502,11494.168462001388,1671626723.322,510,99208,54030
111503,11494.177877916727,1671626723.322,510,99137,54063
111503,11494.187293832067,1671626723.322,510,99137,54063
111504,11494.196709747406,1671626723.388,510,99196,54044
111504,11494.206125662746,1671626723.388,510,99196,54044
111505,11494.215541578085,1671626723.388,511,99266,54051
111505,11494.224957493425,1671626723.388,511,99266,54051
111506,11494.234373408764,1671626723.388,511,99223,54057
111506,11494.243789324104,1671626723.388,511,99223,54057
111507,11494.253205239444,1671626723.388,511,99249,54044
111507,11494.262621154783,1671626723.388,511,99249,54044
111508,11494.272037070123,1671626723.388,511,99249,54067
111508,11494.281452985462,1671626723.388,511,99249,54067
111509,11494.290868900802,1671626723.388,511,99268,54065
111509,11494.300284816141,1671626723.388,511,99268,54065
111510,11494.309700731481,1671626723.483,511,99302,54054
111510,11494.31911664682,1671626723.483,511,99302,54054
111511,11494.32853256216,1671626723.483,511,99307,54073
111511,11494.3379484775,1671626723.483,511,99307,54073
111512,11494.29429135961,1671626723.483,510,99358,54066
111512,11494.301083119019,1671626723.483,510,99358,54066
111513,11494.307874878426,1671626723.483,511,99317,54075
111513,11494.314666637834,1671626723.483,511,99317,54075
111514,11494.321458397242,1671626723.483,511,99318,54074
111514,11494.32825015665,1671626723.483,511,99318,54074
111515,11494.335041916058,1671626723.483,511,99374,54099
111515,11494.341833675466,1671626723.483,511,99374,54099
111516,11494.348625434874,1671626723.577,511,99348,54079
111516,11494.355417194281,1671626723.577,511,99348,54079
111517,11494.36220895369,1671626723.577,510,99284,54065
111517,11494.369000713097,1671626723.577,510,99284,54065
111518,11494.375792472505,1671626723.577,511,99231,54042
111518,11494.382584231913,1671626723.577,511,99231,54042
111519,11494.38937599132,1671626723.577,510,99210,54023
111519,11494.396167750729,1671626723.577,510,99210,54023
111520,11494.402959510136,1671626723.577,510,99137,53997
111520,11494.409751269544,1671626723.577,510,99137,53997
111521,11494.416543028952,1671626723.577,510,99034,53968
111521,11494.42333478836,1671626723.577,510,99034,53968
111522,11494.452979044432,1671626723.67,512,99035,53964
111522,11494.460310336635,1671626723.67,512,99035,53964
111523,11494.467641628838,1671626723.67,510,99027,53946
111523,11494.474972921042,1671626723.67,510,99027,53946
111524,11494.482304213245,1671626723.67,512,98979,53934
111524,11494.489635505448,1671626723.67,512,98979,53934
111525,11494.496966797651,1671626723.67,511,98950,53940
111525,11494.504298089854,1671626723.67,511,98950,53940
111526,11494.511629382057,1671626723.67,510,99013,53939
111526,11494.51896067426,1671626723.67,510,99013,53939
111527,11494.526291966464,1671626723.67,511,99007,53946
111527,11494.533623258667,1671626723.67,511,99007,53946
111528,11494.54095455087,1671626723.769,510,99018,53937
111528,11494.548285843073,1671626723.769,510,99018,53937
111529,11494.555617135276,1671626723.769,510,98959,53924
111529,11494.56294842748,1671626723.769,510,98959,53924
111530,11494.570279719683,1671626723.769,510,98978,53929
111530,11494.577611011886,1671626723.769,510,98978,53929
111531,11494.584942304089,1671626723.769,511,98976,53937
111531,11494.592273596292,1671626723.769,511,98976,53937
111532,11494.612572118394,1671626723.769,510,99000,53946
111532,11494.620265225349,1671626723.769,510,99000,53946
111533,11494.627958332303,1671626723.769,511,99003,53938
111533,11494.635651439257,1671626723.769,511,99003,53938
111534,11494.643344546212,1671626723.971,511,99041,53938
111534,11494.651037653166,1671626723.971,511,99041,53938
111535,11494.65873076012,1671626723.971,511,99002,53924
111535,11494.666423867075,1671626723.971,511,99002,53924
111536,11494.674116974029,1671626723.971,508,99002,53917
111536,11494.681810080983,1671626723.971,508,99002,53917
111537,11494.689503187938,1671626723.971,510,99031,53928
111537,11494.697196294892,1671626723.971,510,99031,53928
111538,11494.704889401846,1671626723.971,510,99017,53912
111538,11494.7125825088,1671626723.971,510,99017,53912
111539,11494.720275615755,1671626723.971,512,98961,53916
111539,11494.72796872271,1671626723.971,512,98961,53916
111540,11494.735661829664,1671626723.984,512,98984,53917
111540,11494.743354936618,1671626723.984,512,98984,53917
111541,11494.751048043572,1671626723.984,510,98990,53915
111541,11494.758741150526,1671626723.984,510,98990,53915
111542,11494.851958590214,1671626723.984,509,98990,53910
111542,11494.857325756835,1671626723.984,509,98990,53910
111543,11494.862692923456,1671626723.984,510,99006,53891
111543,11494.868060090077,1671626723.984,510,99006,53891
111544,11494.873427256698,1671626723.984,510,98983,53888
111544,11494.878794423319,1671626723.984,510,98983,53888
111545,11494.88416158994,1671626723.984,510,99036,53921
111545,11494.889528756561,1671626723.984,510,99036,53921
111546,11494.894895923182,1671626724.054,514,99002,53908
111546,11494.900263089803,1671626724.054,514,99002,53908
111547,11494.905630256424,1671626724.054,511,99035,53924
111547,11494.910997423045,1671626724.054,511,99035,53924
111548,11494.916364589666,1671626724.054,510,99043,53920
111548,11494.921731756287,1671626724.054,510,99043,53920
111549,11494.927098922908,1671626724.054,510,99027,53901
111549,11494.932466089529,1671626724.054,510,99027,53901
111550,11494.93783325615,1671626724.054,510,99043,53918
111550,11494.943200422771,1671626724.054,510,99043,53918
111551,11494.948567589392,1671626724.054,510,99104,53903
111551,11494.953934756013,1671626724.054,510,99104,53903
111552,11494.927185286804,1671626724.144,509,99069,53913
111552,11494.932571809197,1671626724.144,509,99069,53913
111553,11494.93795833159,1671626724.144,510,99041,53942
111553,11494.943344853982,1671626724.144,510,99041,53942
111554,11494.948731376375,1671626724.144,508,99100,53935
111554,11494.954117898767,1671626724.144,508,99100,53935
111555,11494.95950442116,1671626724.144,511,99056,53946
111555,11494.964890943553,1671626724.144,511,99056,53946
111556,11494.970277465945,1671626724.144,510,99167,53945
111556,11494.975663988338,1671626724.144,510,99167,53945
111557,11494.98105051073,1671626724.144,509,99161,53964
111557,11494.986437033123,1671626724.144,509,99161,53964
111558,11494.991823555516,1671626724.229,510,99112,53942
111558,11494.997210077909,1671626724.229,510,99112,53942
111559,11495.002596600301,1671626724.229,509,99149,53922
111559,11495.007983122694,1671626724.229,509,99149,53922
111560,11495.013369645087,1671626724.229,510,99157,53957
111560,11495.01875616748,1671626724.229,510,99157,53957
111561,11495.024142689872,1671626724.229,511,99177,53979
111561,11495.029529212265,1671626724.229,511,99177,53979
111562,11495.076038233226,1671626724.229,510,99160,53954
111562,11495.082676518865,1671626724.229,510,99160,53954
111563,11495.089314804503,1671626724.229,509,99230,53948
111563,11495.095953090142,1671626724.229,509,99230,53948
111564,11495.10259137578,1671626724.318,511,99185,53936
111564,11495.109229661419,1671626724.318,511,99185,53936
111565,11495.115867947057,1671626724.318,509,99103,53915
111565,11495.122506232696,1671626724.318,509,99103,53915
111566,11495.129144518334,1671626724.318,510,99031,53884
111566,11495.135782803973,1671626724.318,510,99031,53884
111567,11495.142421089611,1671626724.318,510,99001,53850
111567,11495.14905937525,1671626724.318,510,99001,53850
111568,11495.155697660888,1671626724.318,509,98879,53844
111568,11495.162335946527,1671626724.318,509,98879,53844
111569,11495.168974232165,1671626724.318,508,98832,53837
111569,11495.175612517804,1671626724.318,508,98832,53837
111570,11495.182250803442,1671626724.475,509,98804,53827
111570,11495.18888908908,1671626724.475,509,98804,53827
111571,11495.195527374719,1671626724.475,509,98878,53822
111571,11495.202165660357,1671626724.475,509,98878,53822
111572,11495.249748675154,1671626724.475,510,98837,53807
111572,11495.260426473127,1671626724.475,510,98837,53807
111573,11495.2711042711,1671626724.475,510,98818,53809
111573,11495.281782069073,1671626724.475,510,98818,53809
111574,11495.292459867045,1671626724.475,509,98856,53797
111574,11495.303137665018,1671626724.475,509,98856,53797
111575,11495.31381546299,1671626724.475,509,98828,53843
111575,11495.324493260963,1671626724.475,509,98828,53843
111576,11495.335171058936,1671626724.508,511,98866,53843
111576,11495.345848856909,1671626724.508,511,98866,53843
111577,11495.356526654881,1671626724.508,510,98870,53812
111577,11495.367204452854,1671626724.508,510,98870,53812
111578,11495.377882250827,1671626724.508,508,98853,53811
111578,11495.3885600488,1671626724.508,508,98853,53811
111579,11495.399237846772,1671626724.508,511,98872,53822
111579,11495.409915644745,1671626724.508,511,98872,53822
111580,11495.420593442717,1671626724.508,510,98868,53811
111580,11495.43127124069,1671626724.508,510,98868,53811
111581,11495.441949038663,1671626724.508,509,98873,53822
111581,11495.452626836635,1671626724.508,509,98873,53822
111582,11495.37841895174,1671626724.6,510,98892,53796
111582,11495.381133685465,1671626724.6,510,98892,53796
111583,11495.383848419191,1671626724.6,509,98817,53809
111583,11495.386563152917,1671626724.6,509,98817,53809
111584,11495.389277886643,1671626724.6,510,98786,53788
111584,11495.391992620369,1671626724.6,510,98786,53788
111585,11495.394707354095,1671626724.6,509,98767,53768
111585,11495.39742208782,1671626724.6,509,98767,53768
111586,11495.400136821547,1671626724.6,511,98797,53778
111586,11495.402851555273,1671626724.6,511,98797,53778
111587,11495.405566288999,1671626724.6,511,98765,53771
111587,11495.408281022725,1671626724.6,511,98765,53771
111588,11495.41099575645,1671626724.722,510,98763,53770
111588,11495.413710490177,1671626724.722,510,98763,53770
111589,11495.416425223902,1671626724.722,509,98810,53783
111589,11495.419139957628,1671626724.722,509,98810,53783
111590,11495.421854691354,1671626724.722,509,98801,53777
111590,11495.42456942508,1671626724.722,509,98801,53777
111591,11495.427284158806,1671626724.722,509,98837,53784
111591,11495.429998892532,1671626724.722,509,98837,53784
111592,11495.559470734132,1671626724.722,509,98830,53791
111592,11495.568837864106,1671626724.722,509,98830,53791
111593,11495.57820499408,1671626724.722,511,98810,53776
111593,11495.587572124055,1671626724.722,511,98810,53776
111594,11495.59693925403,1671626724.797,510,98837,53787
111594,11495.606306384005,1671626724.797,510,98837,53787
111595,11495.61567351398,1671626724.797,510,98836,53782
111595,11495.625040643954,1671626724.797,510,98836,53782
111596,11495.634407773929,1671626724.797,510,98809,53778
111596,11495.643774903903,1671626724.797,510,98809,53778
111597,11495.653142033878,1671626724.797,510,98858,53785
111597,11495.662509163853,1671626724.797,510,98858,53785
111598,11495.671876293827,1671626724.797,509,98832,53791
111598,11495.681243423802,1671626724.797,509,98832,53791
111599,11495.690610553776,1671626724.797,509,98902,53793
111599,11495.699977683751,1671626724.797,509,98902,53793
111600,11495.709344813726,1671626724.888,511,98915,53822
111600,11495.7187119437,1671626724.888,511,98915,53822
111601,11495.728079073675,1671626724.888,510,98871,53802
111601,11495.73744620365,1671626724.888,510,98871,53802
111602,11495.702197416507,1671626724.888,509,98915,53807
111602,11495.708947100686,1671626724.888,509,98915,53807
111603,11495.715696784864,1671626724.888,511,98915,53824
111603,11495.722446469043,1671626724.888,511,98915,53824
111604,11495.729196153221,1671626724.888,510,98848,53829
111604,11495.7359458374,1671626724.888,510,98848,53829
111605,11495.742695521578,1671626724.888,509,98974,53813
111605,11495.749445205756,1671626724.888,509,98974,53813
111606,11495.756194889935,1671626724.997,509,98930,53826
111606,11495.762944574113,1671626724.997,509,98930,53826
111607,11495.769694258292,1671626724.997,509,98918,53823
111607,11495.77644394247,1671626724.997,509,98918,53823
111608,11495.783193626648,1671626724.997,510,98896,53815
111608,11495.789943310827,1671626724.997,510,98896,53815
111609,11495.796692995005,1671626724.997,510,98900,53778
111609,11495.803442679184,1671626724.997,510,98900,53778
111610,11495.810192363362,1671626724.997,510,98868,53782
111610,11495.81694204754,1671626724.997,510,98868,53782
111611,11495.823691731719,1671626724.997,510,98768,53737
111611,11495.830441415897,1671626724.997,510,98768,53737
111612,11495.874316198368,1671626725.105,510,98676,53715
111612,11495.882817919677,1671626725.105,510,98676,53715
111613,11495.891319640987,1671626725.105,509,98644,53685
111613,11495.899821362296,1671626725.105,509,98644,53685
111614,11495.908323083606,1671626725.105,508,98605,53697
111614,11495.916824804915,1671626725.105,508,98605,53697
111615,11495.925326526225,1671626725.105,511,98542,53668
111615,11495.933828247535,1671626725.105,511,98542,53668
111616,11495.942329968844,1671626725.105,511,98603,53679
111616,11495.950831690154,1671626725.105,511,98603,53679
111617,11495.959333411463,1671626725.105,511,98615,53687
111617,11495.967835132773,1671626725.105,511,98615,53687
111618,11495.976336854083,1671626725.165,509,98647,53695
111618,11495.984838575392,1671626725.165,509,98647,53695
111619,11495.993340296702,1671626725.165,509,98509,53649
111619,11496.001842018011,1671626725.165,509,98509,53649
111620,11496.01034373932,1671626725.165,510,98561,53632
111620,11496.01884546063,1671626725.165,510,98561,53632
111621,11496.02734718194,1671626725.165,510,98539,53643
111621,11496.03584890325,1671626725.165,510,98539,53643
111622,11496.018056612771,1671626725.165,510,98557,53669
111622,11496.022980097045,1671626725.165,510,98557,53669
111623,11496.027903581318,1671626725.165,509,98601,53665
111623,11496.032827065592,1671626725.165,509,98601,53665
111624,11496.037750549865,1671626725.269,510,98572,53651
111624,11496.042674034139,1671626725.269,510,98572,53651
111625,11496.047597518413,1671626725.269,510,98585,53674
111625,11496.052521002686,1671626725.269,510,98585,53674
111626,11496.05744448696,1671626725.269,510,98530,53651
111626,11496.062367971233,1671626725.269,510,98530,53651
111627,11496.067291455507,1671626725.269,512,98550,53659
111627,11496.07221493978,1671626725.269,512,98550,53659
111628,11496.077138424054,1671626725.269,510,98531,53652
111628,11496.082061908328,1671626725.269,510,98531,53652
111629,11496.086985392601,1671626725.269,510,98476,53637
111629,11496.091908876875,1671626725.269,510,98476,53637
111630,11496.096832361149,1671626725.351,511,98500,53642
111630,11496.101755845422,1671626725.351,511,98500,53642
111631,11496.106679329696,1671626725.351,510,98450,53646
111631,11496.11160281397,1671626725.351,510,98450,53646
111632,11496.172053979784,1671626725.351,511,98499,53608
111632,11496.178970438945,1671626725.351,511,98499,53608
111633,11496.185886898105,1671626725.351,511,98433,53624
111633,11496.192803357266,1671626725.351,511,98433,53624
111634,11496.199719816426,1671626725.351,510,98498,53615
111634,11496.206636275587,1671626725.351,510,98498,53615
111635,11496.213552734747,1671626725.351,510,98464,53622
111635,11496.220469193908,1671626725.351,510,98464,53622
111636,11496.227385653068,1671626725.461,510,98469,53624
111636,11496.234302112229,1671626725.461,510,98469,53624
111637,11496.24121857139,1671626725.461,509,98548,53611
111637,11496.24813503055,1671626725.461,509,98548,53611
111638,11496.25505148971,1671626725.461,512,98521,53638
111638,11496.26196794887,1671626725.461,512,98521,53638
111639,11496.268884408031,1671626725.461,511,98507,53620
111639,11496.275800867192,1671626725.461,511,98507,53620
111640,11496.282717326352,1671626725.461,511,98546,53639
111640,11496.289633785513,1671626725.461,511,98546,53639
111641,11496.296550244673,1671626725.461,509,98553,53654
111641,11496.303466703834,1671626725.461,509,98553,53654
111642,11496.33888124495,1671626725.556,511,98559,53649
111642,11496.347466846884,1671626725.556,511,98559,53649
111643,11496.356052448818,1671626725.556,511,98499,53660
111643,11496.364638050753,1671626725.556,511,98499,53660
111644,11496.373223652687,1671626725.556,510,98580,53668
111644,11496.38180925462,1671626725.556,510,98580,53668
111645,11496.390394856555,1671626725.556,510,98550,53659
111645,11496.398980458489,1671626725.556,510,98550,53659
111646,11496.407566060423,1671626725.556,510,98564,53674
111646,11496.416151662357,1671626725.556,510,98564,53674
111647,11496.424737264291,1671626725.556,511,98578,53673
111647,11496.433322866225,1671626725.556,511,98578,53673
111648,11496.44190846816,1671626725.667,510,98592,53674
111648,11496.450494070094,1671626725.667,510,98592,53674
111649,11496.459079672028,1671626725.667,511,98608,53694
111649,11496.467665273962,1671626725.667,511,98608,53694
111650,11496.476250875896,1671626725.667,509,98580,53692
111650,11496.48483647783,1671626725.667,509,98580,53692
111651,11496.493422079764,1671626725.667,511,98614,53680
111651,11496.502007681698,1671626725.667,511,98614,53680
111652,11496.507436423826,1671626725.667,509,98668,53690
111652,11496.516009380914,1671626725.667,509,98668,53690
111653,11496.524582338001,1671626725.667,509,98606,53682
111653,11496.533155295088,1671626725.667,509,98606,53682
111654,11496.541728252176,1671626725.736,510,98618,53696
111654,11496.550301209263,1671626725.736,510,98618,53696
111655,11496.55887416635,1671626725.736,509,98623,53695
111655,11496.567447123438,1671626725.736,509,98623,53695
111656,11496.576020080525,1671626725.736,512,98560,53672
111656,11496.584593037613,1671626725.736,512,98560,53672
111657,11496.5931659947,1671626725.736,510,98491,53645
111657,11496.601738951787,1671626725.736,510,98491,53645
111658,11496.610311908875,1671626725.736,510,98369,53609
111658,11496.618884865962,1671626725.736,510,98369,53609
111659,11496.62745782305,1671626725.736,510,98333,53585
111659,11496.636030780137,1671626725.736,510,98333,53585
111660,11496.644603737224,1671626725.831,509,98330,53583
111660,11496.653176694312,1671626725.831,509,98330,53583
111661,11496.661749651399,1671626725.831,510,98306,53584
111661,11496.670322608486,1671626725.831,510,98306,53584
111662,11496.642306501673,1671626725.831,510,98269,53556
111662,11496.649152251295,1671626725.831,510,98269,53556
111663,11496.655998000917,1671626725.831,510,98232,53559
111663,11496.662843750539,1671626725.831,510,98232,53559
111664,11496.66968950016,1671626725.831,508,98212,53541
111664,11496.676535249782,1671626725.831,508,98212,53541
111665,11496.683380999404,1671626725.831,511,98125,53532
111665,11496.690226749026,1671626725.831,511,98125,53532
111666,11496.697072498648,1671626725.918,510,98139,53529
111666,11496.70391824827,1671626725.918,510,98139,53529
111667,11496.710763997891,1671626725.918,511,98149,53530
111667,11496.717609747513,1671626725.918,511,98149,53530
111668,11496.724455497135,1671626725.918,509,98161,53524
111668,11496.731301246757,1671626725.918,509,98161,53524
111669,11496.738146996378,1671626725.918,510,98148,53515
111669,11496.744992746,1671626725.918,510,98148,53515
111670,11496.751838495622,1671626725.918,509,98099,53499
111670,11496.758684245244,1671626725.918,509,98099,53499
111671,11496.765529994866,1671626725.918,511,98154,53540
111671,11496.772375744487,1671626725.918,511,98154,53540
111672,11496.79374654557,1671626726.033,510,98079,53499
111672,11496.800582197842,1671626726.033,510,98079,53499
111673,11496.807417850114,1671626726.033,511,98088,53511
111673,11496.814253502385,1671626726.033,511,98088,53511
111674,11496.821089154657,1671626726.033,510,98057,53505
111674,11496.827924806928,1671626726.033,510,98057,53505
111675,11496.8347604592,1671626726.033,510,98097,53516
111675,11496.841596111472,1671626726.033,510,98097,53516
111676,11496.848431763743,1671626726.033,509,98070,53487
111676,11496.855267416015,1671626726.033,509,98070,53487
111677,11496.862103068286,1671626726.033,509,98016,53502
111677,11496.868938720558,1671626726.033,509,98016,53502
111678,11496.87577437283,1671626726.147,509,98013,53489
111678,11496.8826100251,1671626726.147,509,98013,53489
111679,11496.889445677372,1671626726.147,510,98022,53499
111679,11496.896281329644,1671626726.147,510,98022,53499
111680,11496.903116981915,1671626726.147,510,97980,53491
111680,11496.909952634187,1671626726.147,510,97980,53491
111681,11496.916788286459,1671626726.147,510,98063,53512
111681,11496.92362393873,1671626726.147,510,98063,53512
111682,11496.987198898669,1671626726.147,511,97970,53494
111682,11496.996085784285,1671626726.147,511,97970,53494
111683,11497.004972669902,1671626726.147,509,98030,53504
111683,11497.013859555518,1671626726.147,509,98030,53504
111684,11497.022746441135,1671626726.191,509,97990,53503
111684,11497.031633326751,1671626726.191,509,97990,53503
111685,11497.040520212367,1671626726.191,510,98026,53510
111685,11497.049407097984,1671626726.191,510,98026,53510
111686,11497.0582939836,1671626726.191,510,98060,53512
111686,11497.067180869217,1671626726.191,510,98060,53512
111687,11497.076067754833,1671626726.191,510,98005,53510
111687,11497.08495464045,1671626726.191,510,98005,53510
111688,11497.093841526066,1671626726.191,509,98026,53521
111688,11497.102728411683,1671626726.191,509,98026,53521
111689,11497.111615297299,1671626726.191,508,98100,53558
111689,11497.120502182916,1671626726.191,508,98100,53558
111690,11497.129389068532,1671626726.296,510,98065,53542
111690,11497.138275954148,1671626726.296,510,98065,53542
111691,11497.147162839765,1671626726.296,509,98059,53550
111691,11497.156049725381,1671626726.296,509,98059,53550
111692,11497.099915444824,1671626726.296,509,98062,53544
111692,11497.106712833727,1671626726.296,509,98062,53544
111693,11497.11351022263,1671626726.296,509,98123,53569
111693,11497.120307611534,1671626726.296,509,98123,53569
111694,11497.127105000438,1671626726.296,510,98137,53566
111694,11497.133902389342,1671626726.296,510,98137,53566
111695,11497.140699778245,1671626726.296,509,98105,53567
111695,11497.147497167149,1671626726.296,509,98105,53567
111696,11497.154294556052,1671626726.385,511,98073,53569
111696,11497.161091944956,1671626726.385,511,98073,53569
111697,11497.16788933386,1671626726.385,511,98121,53596
111697,11497.174686722763,1671626726.385,511,98121,53596
111698,11497.181484111667,1671626726.385,511,98152,53605
111698,11497.18828150057,1671626726.385,511,98152,53605
111699,11497.195078889474,1671626726.385,510,98129,53609
111699,11497.201876278377,1671626726.385,510,98129,53609
111700,11497.20867366728,1671626726.385,510,98168,53609
111700,11497.215471056184,1671626726.385,510,98168,53609
111701,11497.222268445088,1671626726.385,511,98201,53625
111701,11497.229065833992,1671626726.385,511,98201,53625
111702,11497.260464328256,1671626726.484,510,98158,53624
111702,11497.267451741594,1671626726.484,510,98158,53624
111703,11497.274439154933,1671626726.484,510,98168,53635
111703,11497.281426568272,1671626726.484,510,98168,53635
111704,11497.28841398161,1671626726.484,511,98168,53654
111704,11497.29540139495,1671626726.484,511,98168,53654
111705,11497.302388808288,1671626726.484,511,98257,53665
111705,11497.309376221627,1671626726.484,511,98257,53665
111706,11497.316363634965,1671626726.484,510,98209,53642
111706,11497.323351048304,1671626726.484,510,98209,53642
111707,11497.330338461643,1671626726.484,511,98120,53628
111707,11497.337325874982,1671626726.484,511,98120,53628
111708,11497.34431328832,1671626726.584,509,98137,53639
111708,11497.351300701659,1671626726.584,509,98137,53639
111709,11497.358288114998,1671626726.584,509,97980,53570
111709,11497.365275528336,1671626726.584,509,97980,53570
111710,11497.372262941675,1671626726.584,510,97945,53582
111710,11497.379250355014,1671626726.584,510,97945,53582
111711,11497.386237768353,1671626726.584,511,97883,53548
111711,11497.393225181691,1671626726.584,511,97883,53548
111712,11497.427081529995,1671626726.584,511,97831,53535
111712,11497.43488370852,1671626726.584,511,97831,53535
111713,11497.442685887045,1671626726.584,510,97818,53546
111713,11497.45048806557,1671626726.584,510,97818,53546
111714,11497.458290244094,1671626726.714,510,97798,53519
111714,11497.46609242262,1671626726.714,510,97798,53519
111715,11497.473894601144,1671626726.714,508,97791,53506
111715,11497.481696779669,1671626726.714,508,97791,53506
111716,11497.489498958194,1671626726.714,510,97715,53515
111716,11497.497301136718,1671626726.714,510,97715,53515
111717,11497.505103315243,1671626726.714,508,97712,53512
111717,11497.512905493768,1671626726.714,508,97712,53512
111718,11497.520707672293,1671626726.714,510,97697,53515
111718,11497.528509850817,1671626726.714,510,97697,53515
111719,11497.536312029342,1671626726.714,509,97650,53492
111719,11497.544114207867,1671626726.714,509,97650,53492
111720,11497.551916386392,1671626726.769,510,97689,53502
111720,11497.559718564917,1671626726.769,510,97689,53502
111721,11497.567520743441,1671626726.769,511,97589,53480
111721,11497.575322921966,1671626726.769,511,97589,53480
111722,11497.60787916471,1671626726.769,509,97627,53481
111722,11497.613892335703,1671626726.769,509,97627,53481
111723,11497.619905506695,1671626726.769,511,97630,53481
111723,11497.625918677688,1671626726.769,511,97630,53481
111724,11497.63193184868,1671626726.769,509,97545,53478
111724,11497.637945019673,1671626726.769,509,97545,53478
111725,11497.643958190665,1671626726.769,510,97582,53491
111725,11497.649971361658,1671626726.769,510,97582,53491
111726,11497.65598453265,1671626726.865,511,97628,53471
111726,11497.661997703643,1671626726.865,511,97628,53471
111727,11497.668010874635,1671626726.865,510,97600,53484
111727,11497.674024045627,1671626726.865,510,97600,53484
111728,11497.68003721662,1671626726.865,511,97621,53481
111728,11497.686050387612,1671626726.865,511,97621,53481
111729,11497.692063558605,1671626726.865,510,97518,53463
111729,11497.698076729597,1671626726.865,510,97518,53463
111730,11497.70408990059,1671626726.865,510,97492,53451
111730,11497.710103071582,1671626726.865,510,97492,53451
111731,11497.716116242575,1671626726.865,508,97532,53499
111731,11497.722129413567,1671626726.865,508,97532,53499
111732,11497.740973392956,1671626726.948,509,97507,53494
111732,11497.748439438536,1671626726.948,509,97507,53494
111733,11497.755905484115,1671626726.948,508,97533,53517
111733,11497.763371529694,1671626726.948,508,97533,53517
111734,11497.770837575274,1671626726.948,510,97531,53487
111734,11497.778303620853,1671626726.948,510,97531,53487
111735,11497.785769666432,1671626726.948,511,97519,53497
111735,11497.793235712012,1671626726.948,511,97519,53497
111736,11497.800701757591,1671626726.948,510,97539,53516
111736,11497.80816780317,1671626726.948,510,97539,53516
111737,11497.81563384875,1671626726.948,510,97555,53534
111737,11497.823099894329,1671626726.948,510,97555,53534
111738,11497.830565939908,1671626727.066,510,97593,53556
111738,11497.838031985488,1671626727.066,510,97593,53556
111739,11497.845498031067,1671626727.066,511,97594,53540
111739,11497.852964076646,1671626727.066,511,97594,53540
111740,11497.860430122226,1671626727.066,508,97553,53516
111740,11497.867896167805,1671626727.066,508,97553,53516
111741,11497.875362213385,1671626727.066,509,97593,53579
111741,11497.882828258964,1671626727.066,509,97593,53579
111742,11497.904875462966,1671626727.066,511,97622,53576
111742,11497.913894070469,1671626727.066,511,97622,53576
111743,11497.922912677972,1671626727.066,510,97618,53584
111743,11497.931931285475,1671626727.066,510,97618,53584
111744,11497.940949892978,1671626727.148,511,97619,53588
111744,11497.949968500481,1671626727.148,511,97619,53588
111745,11497.958987107984,1671626727.148,509,97691,53611
111745,11497.968005715487,1671626727.148,509,97691,53611
111746,11497.97702432299,1671626727.148,510,97656,53634
111746,11497.986042930494,1671626727.148,510,97656,53634
111747,11497.995061537997,1671626727.148,510,97630,53628
111747,11498.0040801455,1671626727.148,510,97630,53628
111748,11498.013098753003,1671626727.148,509,97629,53630
111748,11498.022117360506,1671626727.148,509,97629,53630
111749,11498.031135968009,1671626727.148,510,97712,53637
111749,11498.040154575512,1671626727.148,510,97712,53637
111750,11498.049173183015,1671626727.24,510,97721,53655
111750,11498.058191790518,1671626727.24,510,97721,53655
111751,11498.067210398021,1671626727.24,512,97702,53666
111751,11498.076229005525,1671626727.24,512,97702,53666
111752,11498.053831739968,1671626727.24,511,97680,53692
111752,11498.060781059816,1671626727.24,511,97680,53692
111753,11498.067730379664,1671626727.24,509,97739,53686
111753,11498.074679699512,1671626727.24,509,97739,53686
111754,11498.08162901936,1671626727.24,509,97713,53709
111754,11498.088578339208,1671626727.24,509,97713,53709
111755,11498.095527659056,1671626727.24,509,97711,53716
111755,11498.102476978904,1671626727.24,509,97711,53716
111756,11498.109426298752,1671626727.325,510,97762,53747
111756,11498.1163756186,1671626727.325,510,97762,53747
111757,11498.123324938448,1671626727.325,510,97764,53760
111757,11498.130274258296,1671626727.325,510,97764,53760
111758,11498.137223578144,1671626727.325,510,97749,53743
111758,11498.144172897992,1671626727.325,510,97749,53743
111759,11498.15112221784,1671626727.325,510,97851,53762
111759,11498.158071537688,1671626727.325,510,97851,53762
111760,11498.165020857536,1671626727.325,512,97808,53779
111760,11498.171970177384,1671626727.325,512,97808,53779
111761,11498.178919497232,1671626727.325,509,97861,53787
111761,11498.18586881708,1671626727.325,509,97861,53787
111762,11498.200443743819,1671626727.427,509,97783,53767
111762,11498.207134732878,1671626727.427,509,97783,53767
111763,11498.213825721938,1671626727.427,509,97806,53769
111763,11498.220516710997,1671626727.427,509,97806,53769
111764,11498.227207700056,1671626727.427,510,97749,53742
111764,11498.233898689115,1671626727.427,510,97749,53742
111765,11498.240589678175,1671626727.427,510,97624,53698
111765,11498.247280667234,1671626727.427,510,97624,53698
111766,11498.253971656293,1671626727.427,512,97552,53714
111766,11498.260662645353,1671626727.427,512,97552,53714
111767,11498.267353634412,1671626727.427,510,97484,53670
111767,11498.274044623471,1671626727.427,510,97484,53670
111768,11498.28073561253,1671626727.523,511,97435,53669
111768,11498.28742660159,1671626727.523,511,97435,53669
111769,11498.294117590649,1671626727.523,512,97414,53687
111769,11498.300808579708,1671626727.523,512,97414,53687
111770,11498.307499568768,1671626727.523,509,97371,53679
111770,11498.314190557827,1671626727.523,509,97371,53679
111771,11498.320881546886,1671626727.523,511,97391,53652
111771,11498.327572535945,1671626727.523,511,97391,53652
111772,11498.367509021362,1671626727.523,509,97390,53664
111772,11498.375011738779,1671626727.523,509,97390,53664
111773,11498.382514456196,1671626727.523,509,97412,53667
111773,11498.390017173613,1671626727.523,509,97412,53667
111774,11498.39751989103,1671626727.623,511,97364,53675
111774,11498.405022608447,1671626727.623,511,97364,53675
111775,11498.412525325864,1671626727.623,510,97322,53664
111775,11498.420028043281,1671626727.623,510,97322,53664
111776,11498.427530760699,1671626727.623,509,97334,53652
111776,11498.435033478116,1671626727.623,509,97334,53652
111777,11498.442536195533,1671626727.623,511,97316,53664
111777,11498.45003891295,1671626727.623,511,97316,53664
111778,11498.457541630367,1671626727.623,510,97380,53687
111778,11498.465044347784,1671626727.623,510,97380,53687
111779,11498.472547065201,1671626727.623,511,97411,53700
111779,11498.480049782618,1671626727.623,511,97411,53700
111780,11498.487552500035,1671626727.712,509,97352,53684
111780,11498.495055217452,1671626727.712,509,97352,53684
111781,11498.50255793487,1671626727.712,509,97365,53691
111781,11498.510060652286,1671626727.712,509,97365,53691
111782,11498.528813505276,1671626727.712,511,97294,53671
111782,11498.535976493353,1671626727.712,511,97294,53671
111783,11498.54313948143,1671626727.712,509,97310,53678
111783,11498.550302469506,1671626727.712,509,97310,53678
111784,11498.557465457583,1671626727.712,510,97329,53705
111784,11498.56462844566,1671626727.712,510,97329,53705
111785,11498.571791433737,1671626727.712,509,97236,53700
111785,11498.578954421813,1671626727.712,509,97236,53700
111786,11498.58611740989,1671626727.795,510,97308,53699
111786,11498.593280397967,1671626727.795,510,97308,53699
111787,11498.600443386043,1671626727.795,511,97249,53693
111787,11498.60760637412,1671626727.795,511,97249,53693
111788,11498.614769362197,1671626727.795,510,97275,53724
111788,11498.621932350274,1671626727.795,510,97275,53724
111789,11498.62909533835,1671626727.795,511,97307,53710
111789,11498.636258326427,1671626727.795,511,97307,53710
111790,11498.643421314504,1671626727.795,509,97285,53724
111790,11498.65058430258,1671626727.795,509,97285,53724
111791,11498.657747290657,1671626727.795,511,97293,53740
111791,11498.664910278734,1671626727.795,511,97293,53740
111792,11498.670381947844,1671626727.896,511,97339,53765
111792,11498.676935249372,1671626727.896,511,97339,53765
111793,11498.6834885509,1671626727.896,510,97356,53782
111793,11498.690041852427,1671626727.896,510,97356,53782
111794,11498.696595153955,1671626727.896,509,97310,53777
111794,11498.703148455483,1671626727.896,509,97310,53777
111795,11498.70970175701,1671626727.896,510,97361,53793
111795,11498.716255058538,1671626727.896,510,97361,53793
111796,11498.722808360066,1671626727.896,510,97366,53804
111796,11498.729361661593,1671626727.896,510,97366,53804
111797,11498.735914963121,1671626727.896,511,97444,53810
111797,11498.742468264649,1671626727.896,511,97444,53810
111798,11498.749021566176,1671626727.991,511,97394,53825
111798,11498.755574867704,1671626727.991,511,97394,53825
111799,11498.762128169232,1671626727.991,510,97417,53864
111799,11498.76868147076,1671626727.991,510,97417,53864
111800,11498.775234772287,1671626727.991,510,97428,53845
111800,11498.781788073815,1671626727.991,510,97428,53845
111801,11498.788341375342,1671626727.991,509,97490,53870
111801,11498.79489467687,1671626727.991,509,97490,53870
111802,11498.835457165718,1671626727.991,510,97475,53871
111802,11498.842884738617,1671626727.991,510,97475,53871
111803,11498.850312311515,1671626727.991,508,97462,53890
111803,11498.857739884414,1671626727.991,508,97462,53890
111804,11498.865167457312,1671626728.075,509,97507,53891
111804,11498.87259503021,1671626728.075,509,97507,53891
111805,11498.880022603109,1671626728.075,509,97586,53935
111805,11498.887450176007,1671626728.075,509,97586,53935
111806,11498.894877748906,1671626728.075,511,97554,53907
111806,11498.902305321804,1671626728.075,511,97554,53907
111807,11498.909732894703,1671626728.075,510,97550,53905
111807,11498.917160467601,1671626728.075,510,97550,53905
111808,11498.9245880405,1671626728.075,511,97537,53930
111808,11498.932015613398,1671626728.075,511,97537,53930
111809,11498.939443186297,1671626728.075,509,97556,53936
111809,11498.946870759195,1671626728.075,509,97556,53936
111810,11498.954298332093,1671626728.177,510,97534,53964
111810,11498.961725904992,1671626728.177,510,97534,53964
111811,11498.96915347789,1671626728.177,509,97616,53982
111811,11498.976581050789,1671626728.177,509,97616,53982
111812,11498.985137003428,1671626728.177,511,97554,53971
111812,11498.992681769032,1671626728.177,511,97554,53971
111813,11499.000226534636,1671626728.177,511,97660,54003
111813,11499.00777130024,1671626728.177,511,97660,54003
111814,11499.015316065843,1671626728.177,510,97681,54018
111814,11499.022860831446,1671626728.177,510,97681,54018
111815,11499.03040559705,1671626728.177,509,97670,54032
111815,11499.037950362654,1671626728.177,509,97670,54032
111816,11499.045495128257,1671626728.261,511,97676,54033
111816,11499.05303989386,1671626728.261,511,97676,54033
111817,11499.060584659464,1671626728.261,510,97747,54080
111817,11499.068129425068,1671626728.261,510,97747,54080
111818,11499.075674190672,1671626728.261,509,97723,54063
111818,11499.083218956275,1671626728.261,509,97723,54063
111819,11499.090763721879,1671626728.261,511,97658,54025
111819,11499.098308487482,1671626728.261,511,97658,54025
111820,11499.105853253086,1671626728.261,510,97588,54014
111820,11499.11339801869,1671626728.261,510,97588,54014
111821,11499.120942784293,1671626728.261,511,97550,53991
111821,11499.128487549897,1671626728.261,511,97550,53991
111822,11499.136398094228,1671626728.36,510,97415,53974
111822,11499.143007194918,1671626728.36,510,97415,53974
111823,11499.149616295608,1671626728.36,511,97372,53954
111823,11499.156225396298,1671626728.36,511,97372,53954
111824,11499.162834496989,1671626728.36,510,97360,53947
111824,11499.169443597679,1671626728.36,510,97360,53947
111825,11499.176052698369,1671626728.36,510,97308,53938
111825,11499.18266179906,1671626728.36,510,97308,53938
111826,11499.18927089975,1671626728.36,510,97311,53937
111826,11499.19588000044,1671626728.36,510,97311,53937
111827,11499.20248910113,1671626728.36,510,97234,53908
111827,11499.20909820182,1671626728.36,510,97234,53908
111828,11499.21570730251,1671626728.454,510,97182,53921
111828,11499.2223164032,1671626728.454,510,97182,53921
111829,11499.22892550389,1671626728.454,511,97213,53926
111829,11499.23553460458,1671626728.454,511,97213,53926
111830,11499.24214370527,1671626728.454,511,97218,53898
111830,11499.248752805961,1671626728.454,511,97218,53898
111831,11499.255361906651,1671626728.454,510,97191,53887
111831,11499.261971007341,1671626728.454,510,97191,53887
111832,11499.298939025119,1671626728.454,511,97178,53914
111832,11499.306338231641,1671626728.454,511,97178,53914
111833,11499.313737438164,1671626728.454,509,97156,53916
111833,11499.321136644687,1671626728.454,509,97156,53916
111834,11499.32853585121,1671626728.551,510,97207,53917
111834,11499.335935057732,1671626728.551,510,97207,53917
111835,11499.343334264255,1671626728.551,510,97149,53898
111835,11499.350733470777,1671626728.551,510,97149,53898
111836,11499.3581326773,1671626728.551,510,97188,53936
111836,11499.365531883823,1671626728.551,510,97188,53936
111837,11499.372931090345,1671626728.551,511,97157,53928
111837,11499.380330296868,1671626728.551,511,97157,53928
111838,11499.38772950339,1671626728.551,509,97201,53932
111838,11499.395128709913,1671626728.551,509,97201,53932
111839,11499.402527916436,1671626728.551,511,97119,53943
111839,11499.409927122959,1671626728.551,511,97119,53943
111840,11499.417326329482,1671626728.639,510,97185,53954
111840,11499.424725536004,1671626728.639,510,97185,53954
111841,11499.432124742527,1671626728.639,509,97171,53961
111841,11499.43952394905,1671626728.639,509,97171,53961
111842,11499.455914008437,1671626728.639,510,97092,53921
111842,11499.46297734652,1671626728.639,510,97092,53921
111843,11499.470040684604,1671626728.639,508,97157,53941
111843,11499.477104022688,1671626728.639,508,97157,53941
111844,11499.484167360772,1671626728.639,509,97153,53956
111844,11499.491230698855,1671626728.639,509,97153,53956
111845,11499.49829403694,1671626728.639,509,97118,53956
111845,11499.505357375023,1671626728.639,509,97118,53956
111846,11499.512420713107,1671626728.744,509,97192,53989
111846,11499.51948405119,1671626728.744,509,97192,53989
111847,11499.526547389274,1671626728.744,511,97165,53989
111847,11499.533610727358,1671626728.744,511,97165,53989
111848,11499.540674065442,1671626728.744,509,97130,53981
111848,11499.547737403525,1671626728.744,509,97130,53981
111849,11499.55480074161,1671626728.744,509,97203,54006
111849,11499.561864079693,1671626728.744,509,97203,54006
111850,11499.568927417777,1671626728.744,509,97198,53998
111850,11499.57599075586,1671626728.744,509,97198,53998
111851,11499.583054093944,1671626728.744,510,97173,54054
111851,11499.590117432028,1671626728.744,510,97173,54054
111852,11499.620667200306,1671626728.836,509,97220,54044
111852,11499.628846979638,1671626728.836,509,97220,54044
111853,11499.63702675897,1671626728.836,514,97250,54047
111853,11499.645206538302,1671626728.836,514,97250,54047
111854,11499.653386317634,1671626728.836,509,97208,54069
111854,11499.661566096966,1671626728.836,509,97208,54069
111855,11499.669745876297,1671626728.836,511,97312,54081
111855,11499.67792565563,1671626728.836,511,97312,54081
111856,11499.686105434961,1671626728.836,509,97349,54122
111856,11499.694285214293,1671626728.836,509,97349,54122
111857,11499.702464993625,1671626728.836,510,97365,54111
111857,11499.710644772957,1671626728.836,510,97365,54111
111858,11499.718824552288,1671626728.921,511,97295,54110
111858,11499.72700433162,1671626728.921,511,97295,54110
111859,11499.735184110952,1671626728.921,510,97338,54112
111859,11499.743363890284,1671626728.921,510,97338,54112
111860,11499.751543669616,1671626728.921,512,97397,54136
111860,11499.759723448948,1671626728.921,512,97397,54136
111861,11499.76790322828,1671626728.921,510,97424,54153
111861,11499.776083007611,1671626728.921,510,97424,54153
111862,11499.768058061954,1671626728.921,510,97442,54160
111862,11499.774797678332,1671626728.921,510,97442,54160
111863,11499.78153729471,1671626728.921,511,97482,54185
111863,11499.788276911087,1671626728.921,511,97482,54185
111864,11499.795016527465,1671626729.035,510,97432,54196
111864,11499.801756143843,1671626729.035,510,97432,54196
111865,11499.80849576022,1671626729.035,510,97469,54191
111865,11499.815235376598,1671626729.035,510,97469,54191
111866,11499.821974992976,1671626729.035,510,97511,54215
111866,11499.828714609353,1671626729.035,510,97511,54215
111867,11499.835454225731,1671626729.035,508,97541,54225
111867,11499.842193842109,1671626729.035,508,97541,54225
111868,11499.848933458486,1671626729.035,510,97543,54249
111868,11499.855673074864,1671626729.035,510,97543,54249
111869,11499.862412691242,1671626729.035,510,97580,54268
111869,11499.86915230762,1671626729.035,510,97580,54268
111870,11499.875891923997,1671626729.137,511,97651,54292
111870,11499.882631540375,1671626729.137,511,97651,54292
111871,11499.889371156753,1671626729.137,511,97638,54279
111871,11499.89611077313,1671626729.137,511,97638,54279
111872,11499.946527468486,1671626729.137,509,97640,54291
111872,11499.95476637025,1671626729.137,509,97640,54291
111873,11499.963005272015,1671626729.137,510,97658,54337
111873,11499.97124417378,1671626729.137,510,97658,54337
111874,11499.979483075544,1671626729.137,509,97619,54321
111874,11499.987721977308,1671626729.137,509,97619,54321
111875,11499.995960879072,1671626729.137,509,97644,54322
111875,11500.004199780837,1671626729.137,509,97644,54322
111876,11500.012438682601,1671626729.201,509,97705,54345
111876,11500.020677584365,1671626729.201,509,97705,54345
111877,11500.02891648613,1671626729.201,512,97754,54363
111877,11500.037155387894,1671626729.201,512,97754,54363
111878,11500.045394289658,1671626729.201,510,97753,54389
111878,11500.053633191423,1671626729.201,510,97753,54389
111879,11500.061872093187,1671626729.201,511,97695,54363
111879,11500.070110994951,1671626729.201,511,97695,54363
111880,11500.078349896716,1671626729.201,511,97789,54358
111880,11500.08658879848,1671626729.201,511,97789,54358
111881,11500.094827700244,1671626729.201,509,97708,54329
111881,11500.103066602009,1671626729.201,509,97708,54329
111882,11500.073619973027,1671626729.3,510,97617,54308
111882,11500.078606860898,1671626729.3,510,97617,54308
111883,11500.083593748768,1671626729.3,510,97516,54298
111883,11500.088580636639,1671626729.3,510,97516,54298
111884,11500.09356752451,1671626729.3,511,97540,54291
111884,11500.09855441238,1671626729.3,511,97540,54291
111885,11500.10354130025,1671626729.3,511,97456,54260
111885,11500.10852818812,1671626729.3,511,97456,54260
111886,11500.113515075991,1671626729.3,510,97473,54275
111886,11500.118501963861,1671626729.3,510,97473,54275
111887,11500.123488851732,1671626729.3,510,97428,54253
111887,11500.128475739602,1671626729.3,510,97428,54253
111888,11500.133462627473,1671626729.402,510,97474,54287
111888,11500.138449515343,1671626729.402,510,97474,54287
111889,11500.143436403214,1671626729.402,510,97437,54246
111889,11500.148423291084,1671626729.402,510,97437,54246
111890,11500.153410178955,1671626729.402,509,97419,54271
111890,11500.158397066825,1671626729.402,509,97419,54271
111891,11500.163383954696,1671626729.402,511,97404,54261
111891,11500.168370842566,1671626729.402,511,97404,54261
111892,11500.24506249979,1671626729.402,510,97422,54266
111892,11500.253005093316,1671626729.402,510,97422,54266
111893,11500.260947686844,1671626729.402,509,97427,54263
111893,11500.268890280371,1671626729.402,509,97427,54263
111894,11500.276832873898,1671626729.488,509,97360,54245
111894,11500.284775467426,1671626729.488,509,97360,54245
111895,11500.292718060953,1671626729.488,509,97391,54250
111895,11500.30066065448,1671626729.488,509,97391,54250
111896,11500.308603248008,1671626729.488,508,97423,54252
111896,11500.316545841535,1671626729.488,508,97423,54252
111897,11500.324488435062,1671626729.488,509,97359,54259
111897,11500.33243102859,1671626729.488,509,97359,54259
111898,11500.340373622117,1671626729.488,510,97444,54257
111898,11500.348316215644,1671626729.488,510,97444,54257
111899,11500.356258809172,1671626729.488,510,97419,54276
111899,11500.3642014027,1671626729.488,510,97419,54276
111900,11500.372143996226,1671626729.576,510,97380,54255
111900,11500.380086589754,1671626729.576,510,97380,54255
111901,11500.388029183281,1671626729.576,510,97415,54271
111901,11500.395971776808,1671626729.576,510,97415,54271
111902,11500.392346662624,1671626729.576,511,97335,54269
111902,11500.399181319768,1671626729.576,511,97335,54269
111903,11500.406015976912,1671626729.576,510,97362,54255
111903,11500.412850634057,1671626729.576,510,97362,54255
111904,11500.419685291201,1671626729.576,511,97416,54263
111904,11500.426519948345,1671626729.576,511,97416,54263
111905,11500.43335460549,1671626729.576,510,97397,54271
111905,11500.440189262634,1671626729.576,510,97397,54271
111906,11500.447023919778,1671626729.666,510,97353,54271
111906,11500.453858576922,1671626729.666,510,97353,54271
111907,11500.460693234067,1671626729.666,510,97368,54284
111907,11500.467527891211,1671626729.666,510,97368,54284
111908,11500.474362548355,1671626729.666,510,97432,54293
111908,11500.4811972055,1671626729.666,510,97432,54293
111909,11500.488031862644,1671626729.666,511,97395,54267
111909,11500.494866519788,1671626729.666,511,97395,54267
111910,11500.501701176932,1671626729.666,511,97457,54284
111910,11500.508535834077,1671626729.666,511,97457,54284
111911,11500.51537049122,1671626729.666,509,97420,54300
111911,11500.522205148365,1671626729.666,509,97420,54300
111912,11500.54211358896,1671626729.795,509,97473,54328
111912,11500.549184844689,1671626729.795,509,97473,54328
111913,11500.556256100419,1671626729.795,510,97484,54308
111913,11500.563327356149,1671626729.795,510,97484,54308
111914,11500.570398611879,1671626729.795,509,97489,54337
111914,11500.577469867609,1671626729.795,509,97489,54337
111915,11500.584541123339,1671626729.795,511,97542,54339
111915,11500.591612379068,1671626729.795,511,97542,54339
111916,11500.598683634798,1671626729.795,512,97465,54338
111916,11500.605754890528,1671626729.795,512,97465,54338
111917,11500.612826146258,1671626729.795,511,97556,54361
111917,11500.619897401988,1671626729.795,511,97556,54361
111918,11500.626968657718,1671626729.87,511,97562,54375
111918,11500.634039913448,1671626729.87,511,97562,54375
111919,11500.641111169178,1671626729.87,510,97596,54391
111919,11500.648182424908,1671626729.87,510,97596,54391
111920,11500.655253680638,1671626729.87,509,97586,54407
111920,11500.662324936367,1671626729.87,509,97586,54407
111921,11500.669396192097,1671626729.87,509,97669,54431
111921,11500.676467447827,1671626729.87,509,97669,54431
111922,11500.719277246148,1671626729.87,511,97605,54401
111922,11500.72536304206,1671626729.87,511,97605,54401
111923,11500.731448837972,1671626729.87,510,97698,54444
111923,11500.737534633885,1671626729.87,510,97698,54444
111924,11500.743620429797,1671626729.949,511,97698,54433
111924,11500.74970622571,1671626729.949,511,97698,54433
111925,11500.755792021622,1671626729.949,510,97745,54438
111925,11500.761877817535,1671626729.949,510,97745,54438
111926,11500.767963613447,1671626729.949,510,97728,54443
111926,11500.77404940936,1671626729.949,510,97728,54443
111927,11500.780135205272,1671626729.949,510,97734,54446
