id,lsl_ts,unix_ts,ambient,ir,red
54684,9845.45955825,1671625074.644,541,114111,72350
54684,9845.45955825,1671625074.644,541,114111,72350
54685,9845.4696836,1671625074.644,532,127780,74279
54685,9845.4696836,1671625074.644,532,127780,74279
54686,9845.47980895,1671625074.644,530,127820,74285
54686,9845.47980895,1671625074.644,530,127820,74285
54687,9845.4899343,1671625074.644,530,127890,74274
54687,9845.4899343,1671625074.644,530,127890,74274
54688,9845.50005965,1671625074.644,530,127837,74256
54688,9845.50005965,1671625074.644,530,127837,74256
54689,9845.510185,1671625074.644,529,127724,74213
54689,9845.510185,1671625074.644,529,127724,74213
54690,9845.526043333333,1671625074.739,529,127763,74232
54690,9845.526043333333,1671625074.739,529,127763,74232
54691,9845.541901666666,1671625074.739,528,127680,74222
54691,9845.541901666666,1671625074.739,528,127680,74222
54692,9845.55776,1671625074.739,531,127592,74191
54692,9845.55776,1671625074.739,531,127592,74191
54693,9845.573618333334,1671625074.739,530,127569,74193
54693,9845.573618333334,1671625074.739,530,127569,74193
54694,9845.589476666666,1671625074.739,528,127598,74168
54694,9845.589476666666,1671625074.739,528,127598,74168
54695,9845.605335,1671625074.739,530,127534,74146
54695,9845.605335,1671625074.739,530,127534,74146
54696,9845.611737983334,1671625074.777,529,127595,74145
54696,9845.611737983334,1671625074.777,529,127595,74145
54697,9845.618140966666,1671625074.777,528,127564,74128
54697,9845.618140966666,1671625074.777,528,127564,74128
54698,9845.62454395,1671625074.777,527,127562,74139
54698,9845.62454395,1671625074.777,527,127562,74139
54699,9845.630946933334,1671625074.777,529,127492,74158
54699,9845.630946933334,1671625074.777,529,127492,74158
54700,9845.637349916666,1671625074.777,529,127569,74132
54700,9845.637349916666,1671625074.777,529,127569,74132
54701,9845.6437529,1671625074.777,530,127550,74118
54701,9845.6437529,1671625074.777,530,127550,74118
54702,9845.6585648,1671625074.866,529,127575,74147
54702,9845.6585648,1671625074.866,529,127575,74147
54703,9845.6733767,1671625074.866,527,127559,74146
54703,9845.6733767,1671625074.866,527,127559,74146
54704,9845.688188600001,1671625074.866,527,127574,74150
54704,9845.688188600001,1671625074.866,527,127574,74150
54705,9845.7030005,1671625074.866,525,127585,74157
54705,9845.7030005,1671625074.866,525,127585,74157
54706,9845.7178124,1671625074.866,527,127576,74168
54706,9845.7178124,1671625074.866,527,127576,74168
54707,9845.7326243,1671625074.866,528,127563,74159
54707,9845.7326243,1671625074.866,528,127563,74159
54708,9845.753222966667,1671625074.99,528,127656,74173
54708,9845.753222966667,1671625074.99,528,127656,74173
54709,9845.773821633335,1671625074.99,528,127654,74182
54709,9845.773821633335,1671625074.99,528,127654,74182
54710,9845.7944203,1671625074.99,528,127733,74182
54710,9845.7944203,1671625074.99,528,127733,74182
54711,9845.815018966667,1671625074.99,528,127628,74175
54711,9845.815018966667,1671625074.99,528,127628,74175
54712,9845.835617633335,1671625074.99,528,127662,74130
54712,9845.835617633335,1671625074.99,528,127662,74130
54713,9845.8562163,1671625074.99,526,127735,74152
54713,9845.8562163,1671625074.99,526,127735,74152
54714,9845.8660326,1671625075.049,528,127607,74177
54714,9845.8660326,1671625075.049,528,127607,74177
54715,9845.875848900001,1671625075.049,529,127700,74150
54715,9845.875848900001,1671625075.049,529,127700,74150
54716,9845.8856652,1671625075.049,529,127666,74157
54716,9845.8856652,1671625075.049,529,127666,74157
54717,9845.8954815,1671625075.049,529,127713,74157
54717,9845.8954815,1671625075.049,529,127713,74157
54718,9845.9052978,1671625075.049,528,127665,74113
54718,9845.9052978,1671625075.049,528,127665,74113
54719,9845.9151141,1671625075.049,529,127682,74147
54719,9845.9151141,1671625075.049,529,127682,74147
54720,9845.93039765,1671625075.141,529,127649,74133
54720,9845.93039765,1671625075.141,529,127649,74133
54721,9845.9456812,1671625075.141,527,127620,74141
54721,9845.9456812,1671625075.141,527,127620,74141
54722,9845.96096475,1671625075.141,528,127645,74130
54722,9845.96096475,1671625075.141,528,127645,74130
54723,9845.9762483,1671625075.141,529,127695,74139
54723,9845.9762483,1671625075.141,529,127695,74139
54724,9845.99153185,1671625075.141,530,127594,74120
54724,9845.99153185,1671625075.141,530,127594,74120
54725,9846.0068154,1671625075.141,529,127681,74109
54725,9846.0068154,1671625075.141,529,127681,74109
54726,9846.024991983333,1671625075.25,528,127611,74131
54726,9846.024991983333,1671625075.25,528,127611,74131
54727,9846.043168566666,1671625075.25,528,127614,74109
54727,9846.043168566666,1671625075.25,528,127614,74109
54728,9846.06134515,1671625075.25,528,127648,74125
54728,9846.06134515,1671625075.25,528,127648,74125
54729,9846.079521733334,1671625075.25,528,127679,74121
54729,9846.079521733334,1671625075.25,528,127679,74121
54730,9846.097698316667,1671625075.25,528,127640,74123
54730,9846.097698316667,1671625075.25,528,127640,74123
54731,9846.1158749,1671625075.25,529,127657,74122
54731,9846.1158749,1671625075.25,529,127657,74122
54732,9846.132388916667,1671625075.349,530,127669,74125
54732,9846.132388916667,1671625075.349,530,127669,74125
54733,9846.148902933333,1671625075.349,529,127666,74111
54733,9846.148902933333,1671625075.349,529,127666,74111
54734,9846.16541695,1671625075.349,528,127638,74109
54734,9846.16541695,1671625075.349,528,127638,74109
54735,9846.181930966668,1671625075.349,529,127630,74135
54735,9846.181930966668,1671625075.349,529,127630,74135
54736,9846.198444983334,1671625075.349,528,127598,74120
54736,9846.198444983334,1671625075.349,528,127598,74120
54737,9846.214959,1671625075.349,528,127733,74140
54737,9846.214959,1671625075.349,528,127733,74140
54738,9846.226570783334,1671625075.418,530,127724,74158
54738,9846.226570783334,1671625075.418,530,127724,74158
54739,9846.238182566667,1671625075.418,529,127643,74145
54739,9846.238182566667,1671625075.418,529,127643,74145
54740,9846.24979435,1671625075.418,530,127708,74133
54740,9846.24979435,1671625075.418,530,127708,74133
54741,9846.261406133333,1671625075.418,529,127657,74134
54741,9846.261406133333,1671625075.418,529,127657,74134
54742,9846.273017916667,1671625075.418,530,127602,74130
54742,9846.273017916667,1671625075.418,530,127602,74130
54743,9846.2846297,1671625075.418,528,127628,74135
54743,9846.2846297,1671625075.418,528,127628,74135
54744,9846.300866233334,1671625075.516,527,127651,74146
54744,9846.300866233334,1671625075.516,527,127651,74146
54745,9846.317102766667,1671625075.516,528,127665,74143
54745,9846.317102766667,1671625075.516,528,127665,74143
54746,9846.3333393,1671625075.516,527,127632,74162
54746,9846.3333393,1671625075.516,527,127632,74162
54747,9846.349575833334,1671625075.516,528,127659,74145
54747,9846.349575833334,1671625075.516,528,127659,74145
54748,9846.365812366668,1671625075.516,528,127644,74180
54748,9846.365812366668,1671625075.516,528,127644,74180
54749,9846.3820489,1671625075.516,528,127700,74150
54749,9846.3820489,1671625075.516,528,127700,74150
54750,9846.399250733335,1671625075.619,529,127587,74151
54750,9846.399250733335,1671625075.619,529,127587,74151
54751,9846.416452566667,1671625075.619,526,127651,74133
54751,9846.416452566667,1671625075.619,526,127651,74133
54752,9846.4336544,1671625075.619,527,127681,74169
54752,9846.4336544,1671625075.619,527,127681,74169
54753,9846.450856233334,1671625075.619,526,127664,74143
54753,9846.450856233334,1671625075.619,526,127664,74143
54754,9846.468058066668,1671625075.619,528,127694,74142
54754,9846.468058066668,1671625075.619,528,127694,74142
54755,9846.4852599,1671625075.619,528,127622,74146
54755,9846.4852599,1671625075.619,528,127622,74146
54756,9846.4981578,1671625075.696,528,127649,74134
54756,9846.4981578,1671625075.696,528,127649,74134
54757,9846.5110557,1671625075.696,527,127646,74148
54757,9846.5110557,1671625075.696,527,127646,74148
54758,9846.5239536,1671625075.696,529,127646,74143
54758,9846.5239536,1671625075.696,529,127646,74143
54759,9846.5368515,1671625075.696,527,127581,74124
54759,9846.5368515,1671625075.696,527,127581,74124
54760,9846.5497494,1671625075.696,526,127597,74113
54760,9846.5497494,1671625075.696,526,127597,74113
54761,9846.5626473,1671625075.696,526,127592,74148
54761,9846.5626473,1671625075.696,526,127592,74148
54762,9846.578830816667,1671625075.793,527,127504,74105
54762,9846.578830816667,1671625075.793,527,127504,74105
54763,9846.595014333332,1671625075.793,527,127525,74088
54763,9846.595014333332,1671625075.793,527,127525,74088
54764,9846.61119785,1671625075.793,529,127510,74106
54764,9846.61119785,1671625075.793,529,127510,74106
54765,9846.627381366667,1671625075.793,528,127518,74104
54765,9846.627381366667,1671625075.793,528,127518,74104
54766,9846.643564883332,1671625075.793,528,127441,74095
54766,9846.643564883332,1671625075.793,528,127441,74095
54767,9846.6597484,1671625075.793,528,127483,74105
54767,9846.6597484,1671625075.793,528,127483,74105
54768,9846.676534999999,1671625075.894,527,127490,74079
54768,9846.676534999999,1671625075.894,527,127490,74079
54769,9846.6933216,1671625075.894,527,127505,74091
54769,9846.6933216,1671625075.894,527,127505,74091
54770,9846.7101082,1671625075.894,528,127512,74071
54770,9846.7101082,1671625075.894,528,127512,74071
54771,9846.7268948,1671625075.894,528,127479,74089
54771,9846.7268948,1671625075.894,528,127479,74089
54772,9846.7436814,1671625075.894,529,127422,74079
54772,9846.7436814,1671625075.894,529,127422,74079
54773,9846.760468,1671625075.894,527,127530,74091
54773,9846.760468,1671625075.894,527,127530,74091
54774,9846.775239916667,1671625075.983,528,127502,74069
54774,9846.775239916667,1671625075.983,528,127502,74069
54775,9846.790011833333,1671625075.983,527,127480,74071
54775,9846.790011833333,1671625075.983,527,127480,74071
54776,9846.80478375,1671625075.983,528,127475,74070
54776,9846.80478375,1671625075.983,528,127475,74070
54777,9846.819555666667,1671625075.983,528,127541,74062
54777,9846.819555666667,1671625075.983,528,127541,74062
54778,9846.834327583332,1671625075.983,527,127497,74100
54778,9846.834327583332,1671625075.983,527,127497,74100
54779,9846.8490995,1671625075.983,528,127487,74097
54779,9846.8490995,1671625075.983,528,127487,74097
54780,9846.864126499999,1671625076.073,528,127555,74116
54780,9846.864126499999,1671625076.073,528,127555,74116
54781,9846.8791535,1671625076.073,528,127553,74114
54781,9846.8791535,1671625076.073,528,127553,74114
54782,9846.8941805,1671625076.073,529,127641,74136
54782,9846.8941805,1671625076.073,529,127641,74136
54783,9846.909207499999,1671625076.073,526,127717,74180
54783,9846.909207499999,1671625076.073,526,127717,74180
54784,9846.9242345,1671625076.073,526,127732,74192
54784,9846.9242345,1671625076.073,526,127732,74192
54785,9846.9392615,1671625076.073,525,127748,74165
54785,9846.9392615,1671625076.073,525,127748,74165
54786,9846.955956716667,1671625076.173,527,127789,74199
54786,9846.955956716667,1671625076.173,527,127789,74199
54787,9846.972651933333,1671625076.173,526,127798,74206
54787,9846.972651933333,1671625076.173,526,127798,74206
54788,9846.98934715,1671625076.173,528,127877,74219
54788,9846.98934715,1671625076.173,528,127877,74219
54789,9847.006042366667,1671625076.173,529,127834,74229
54789,9847.006042366667,1671625076.173,529,127834,74229
54790,9847.022737583333,1671625076.173,528,127914,74221
54790,9847.022737583333,1671625076.173,528,127914,74221
54791,9847.0394328,1671625076.173,526,127884,74245
54791,9847.0394328,1671625076.173,526,127884,74245
54792,9847.055403,1671625076.269,526,127882,74219
54792,9847.055403,1671625076.269,526,127882,74219
54793,9847.0713732,1671625076.269,527,127849,74194
54793,9847.0713732,1671625076.269,527,127849,74194
54794,9847.0873434,1671625076.269,527,127762,74193
54794,9847.0873434,1671625076.269,527,127762,74193
54795,9847.1033136,1671625076.269,527,127772,74199
54795,9847.1033136,1671625076.269,527,127772,74199
54796,9847.1192838,1671625076.269,528,127694,74190
54796,9847.1192838,1671625076.269,528,127694,74190
54797,9847.135254,1671625076.269,528,127640,74172
54797,9847.135254,1671625076.269,528,127640,74172
54798,9847.150073316667,1671625076.358,528,127617,74148
54798,9847.150073316667,1671625076.358,528,127617,74148
54799,9847.164892633335,1671625076.358,527,127592,74135
54799,9847.164892633335,1671625076.358,527,127592,74135
54800,9847.17971195,1671625076.358,527,127519,74154
54800,9847.17971195,1671625076.358,527,127519,74154
54801,9847.194531266667,1671625076.358,528,127484,74113
54801,9847.194531266667,1671625076.358,528,127484,74113
54802,9847.209350583335,1671625076.358,527,127377,74071
54802,9847.209350583335,1671625076.358,527,127377,74071
54803,9847.2241699,1671625076.358,527,127434,74086
54803,9847.2241699,1671625076.358,527,127434,74086
54804,9847.23903015,1671625076.447,531,127414,74100
54804,9847.23903015,1671625076.447,531,127414,74100
54805,9847.253890400001,1671625076.447,528,127356,74058
54805,9847.253890400001,1671625076.447,528,127356,74058
54806,9847.26875065,1671625076.447,529,127381,74062
54806,9847.26875065,1671625076.447,529,127381,74062
54807,9847.2836109,1671625076.447,529,127360,74067
54807,9847.2836109,1671625076.447,529,127360,74067
54808,9847.298471150001,1671625076.447,527,127324,74061
54808,9847.298471150001,1671625076.447,527,127324,74061
54809,9847.3133314,1671625076.447,529,127259,74055
54809,9847.3133314,1671625076.447,529,127259,74055
54810,9847.329252583335,1671625076.543,529,127354,74041
54810,9847.329252583335,1671625076.543,529,127354,74041
54811,9847.345173766667,1671625076.543,528,127290,74055
54811,9847.345173766667,1671625076.543,528,127290,74055
54812,9847.36109495,1671625076.543,529,127253,74040
54812,9847.36109495,1671625076.543,529,127253,74040
54813,9847.377016133334,1671625076.543,529,127257,74038
54813,9847.377016133334,1671625076.543,529,127257,74038
54814,9847.392937316668,1671625076.543,528,127357,74074
54814,9847.392937316668,1671625076.543,528,127357,74074
54815,9847.4088585,1671625076.543,527,127332,74086
54815,9847.4088585,1671625076.543,527,127332,74086
54816,9847.425141450001,1671625076.64,526,127363,74091
54816,9847.425141450001,1671625076.64,526,127363,74091
54817,9847.4414244,1671625076.64,526,127422,74111
54817,9847.4414244,1671625076.64,526,127422,74111
54818,9847.45770735,1671625076.64,526,127532,74137
54818,9847.45770735,1671625076.64,526,127532,74137
54819,9847.4739903,1671625076.64,527,127456,74148
54819,9847.4739903,1671625076.64,527,127456,74148
54820,9847.49027325,1671625076.64,528,127512,74150
54820,9847.49027325,1671625076.64,528,127512,74150
54821,9847.5065562,1671625076.64,528,127518,74161
54821,9847.5065562,1671625076.64,528,127518,74161
54822,9847.522861416666,1671625076.738,527,127664,74160
54822,9847.522861416666,1671625076.738,527,127664,74160
54823,9847.539166633333,1671625076.738,526,127580,74170
54823,9847.539166633333,1671625076.738,526,127580,74170
54824,9847.555471849999,1671625076.738,526,127592,74163
54824,9847.555471849999,1671625076.738,526,127592,74163
54825,9847.571777066667,1671625076.738,526,127620,74193
54825,9847.571777066667,1671625076.738,526,127620,74193
54826,9847.588082283333,1671625076.738,526,127662,74164
54826,9847.588082283333,1671625076.738,526,127662,74164
54827,9847.6043875,1671625076.738,527,127622,74173
54827,9847.6043875,1671625076.738,527,127622,74173
54828,9847.618347733332,1671625076.822,528,127683,74174
54828,9847.618347733332,1671625076.822,528,127683,74174
54829,9847.632307966667,1671625076.822,528,127614,74171
54829,9847.632307966667,1671625076.822,528,127614,74171
54830,9847.6462682,1671625076.822,526,127622,74195
54830,9847.6462682,1671625076.822,526,127622,74195
54831,9847.660228433333,1671625076.822,527,127622,74176
54831,9847.660228433333,1671625076.822,527,127622,74176
54832,9847.674188666668,1671625076.822,526,127612,74187
54832,9847.674188666668,1671625076.822,526,127612,74187
54833,9847.6881489,1671625076.822,526,127676,74164
54833,9847.6881489,1671625076.822,526,127676,74164
54834,9847.7035323,1671625076.914,526,127633,74182
54834,9847.7035323,1671625076.914,526,127633,74182
54835,9847.718915700001,1671625076.914,528,127606,74171
54835,9847.718915700001,1671625076.914,528,127606,74171
54836,9847.7342991,1671625076.914,529,127644,74173
54836,9847.7342991,1671625076.914,529,127644,74173
54837,9847.7496825,1671625076.914,527,127624,74175
54837,9847.7496825,1671625076.914,527,127624,74175
54838,9847.765065900001,1671625076.914,528,127599,74167
54838,9847.765065900001,1671625076.914,528,127599,74167
54839,9847.7804493,1671625076.914,527,127686,74175
54839,9847.7804493,1671625076.914,527,127686,74175
54840,9847.797766733334,1671625077.018,527,127603,74155
54840,9847.797766733334,1671625077.018,527,127603,74155
54841,9847.815084166667,1671625077.018,526,127562,74176
54841,9847.815084166667,1671625077.018,526,127562,74176
54842,9847.8324016,1671625077.018,529,127616,74180
54842,9847.8324016,1671625077.018,529,127616,74180
54843,9847.849719033335,1671625077.018,527,127585,74200
54843,9847.849719033335,1671625077.018,527,127585,74200
54844,9847.867036466667,1671625077.018,528,127574,74164
54844,9847.867036466667,1671625077.018,528,127574,74164
54845,9847.8843539,1671625077.018,527,127561,74190
54845,9847.8843539,1671625077.018,527,127561,74190
54846,9847.899317933334,1671625077.108,527,127685,74201
54846,9847.899317933334,1671625077.108,527,127685,74201
54847,9847.914281966667,1671625077.108,527,127602,74212
54847,9847.914281966667,1671625077.108,527,127602,74212
54848,9847.929246,1671625077.108,526,127682,74212
54848,9847.929246,1671625077.108,526,127682,74212
54849,9847.944210033334,1671625077.108,528,127678,74205
54849,9847.944210033334,1671625077.108,528,127678,74205
54850,9847.959174066667,1671625077.108,526,127644,74247
54850,9847.959174066667,1671625077.108,526,127644,74247
54851,9847.9741381,1671625077.108,528,127711,74211
54851,9847.9741381,1671625077.108,528,127711,74211
54852,9847.989587633334,1671625077.201,530,127734,74248
54852,9847.989587633334,1671625077.201,530,127734,74248
54853,9848.005037166668,1671625077.201,527,127745,74244
54853,9848.005037166668,1671625077.201,527,127745,74244
54854,9848.0204867,1671625077.201,529,127690,74216
54854,9848.0204867,1671625077.201,529,127690,74216
54855,9848.035936233333,1671625077.201,529,127670,74244
54855,9848.035936233333,1671625077.201,529,127670,74244
54856,9848.051385766666,1671625077.201,527,127774,74246
54856,9848.051385766666,1671625077.201,527,127774,74246
54857,9848.0668353,1671625077.201,527,127703,74220
54857,9848.0668353,1671625077.201,527,127703,74220
54858,9848.082318216668,1671625077.293,530,127675,74226
54858,9848.082318216668,1671625077.293,530,127675,74226
54859,9848.097801133334,1671625077.293,530,127692,74222
54859,9848.097801133334,1671625077.293,530,127692,74222
54860,9848.11328405,1671625077.293,530,127678,74204
54860,9848.11328405,1671625077.293,530,127678,74204
54861,9848.128766966667,1671625077.293,530,127599,74211
54861,9848.128766966667,1671625077.293,530,127599,74211
54862,9848.144249883335,1671625077.293,530,127585,74182
54862,9848.144249883335,1671625077.293,530,127585,74182
54863,9848.1597328,1671625077.293,530,127437,74173
54863,9848.1597328,1671625077.293,530,127437,74173
54864,9848.176130666667,1671625077.392,531,127374,74126
54864,9848.176130666667,1671625077.392,531,127374,74126
54865,9848.192528533335,1671625077.392,531,127432,74125
54865,9848.192528533335,1671625077.392,531,127432,74125
54866,9848.2089264,1671625077.392,532,127345,74096
54866,9848.2089264,1671625077.392,532,127345,74096
54867,9848.225324266667,1671625077.392,533,127196,74071
54867,9848.225324266667,1671625077.392,533,127196,74071
54868,9848.241722133334,1671625077.392,534,127177,74055
54868,9848.241722133334,1671625077.392,534,127177,74055
54869,9848.25812,1671625077.392,532,127159,74050
54869,9848.25812,1671625077.392,532,127159,74050
54870,9848.273726783333,1671625077.485,534,127087,74025
54870,9848.273726783333,1671625077.485,534,127087,74025
54871,9848.289333566667,1671625077.485,533,127138,74014
54871,9848.289333566667,1671625077.485,533,127138,74014
54872,9848.30494035,1671625077.485,532,127021,73996
54872,9848.30494035,1671625077.485,532,127021,73996
54873,9848.320547133333,1671625077.485,532,127002,74011
54873,9848.320547133333,1671625077.485,532,127002,74011
54874,9848.336153916665,1671625077.485,532,127015,73984
54874,9848.336153916665,1671625077.485,532,127015,73984
54875,9848.3517607,1671625077.485,532,127018,73992
54875,9848.3517607,1671625077.485,532,127018,73992
54876,9848.366245833333,1671625077.572,532,127092,74017
54876,9848.366245833333,1671625077.572,532,127092,74017
54877,9848.380730966666,1671625077.572,531,127079,74013
54877,9848.380730966666,1671625077.572,531,127079,74013
54878,9848.3952161,1671625077.572,531,127094,74021
54878,9848.3952161,1671625077.572,531,127094,74021
54879,9848.409701233333,1671625077.572,527,127166,74057
54879,9848.409701233333,1671625077.572,527,127166,74057
54880,9848.424186366667,1671625077.572,528,127160,74052
54880,9848.424186366667,1671625077.572,528,127160,74052
54881,9848.4386715,1671625077.572,527,127284,74077
54881,9848.4386715,1671625077.572,527,127284,74077
54882,9848.4547001,1671625077.669,526,127372,74107
54882,9848.4547001,1671625077.669,526,127372,74107
54883,9848.4707287,1671625077.669,529,127493,74182
54883,9848.4707287,1671625077.669,529,127493,74182
54884,9848.486757300001,1671625077.669,528,127608,74232
54884,9848.486757300001,1671625077.669,528,127608,74232
54885,9848.5027859,1671625077.669,527,127695,74268
54885,9848.5027859,1671625077.669,527,127695,74268
54886,9848.5188145,1671625077.669,527,127828,74339
54886,9848.5188145,1671625077.669,527,127828,74339
54887,9848.5348431,1671625077.669,527,127933,74353
54887,9848.5348431,1671625077.669,527,127933,74353
54888,9848.55186135,1671625077.771,524,128035,74411
54888,9848.55186135,1671625077.771,524,128035,74411
54889,9848.5688796,1671625077.771,526,128179,74429
54889,9848.5688796,1671625077.771,526,128179,74429
54890,9848.58589785,1671625077.771,526,128258,74434
54890,9848.58589785,1671625077.771,526,128258,74434
54891,9848.6029161,1671625077.771,526,128243,74461
54891,9848.6029161,1671625077.771,526,128243,74461
54892,9848.61993435,1671625077.771,529,128314,74472
54892,9848.61993435,1671625077.771,529,128314,74472
54893,9848.6369526,1671625077.771,528,128288,74469
54893,9848.6369526,1671625077.771,528,128288,74469
54894,9848.651190383333,1671625077.856,527,128275,74449
54894,9848.651190383333,1671625077.856,527,128275,74449
54895,9848.665428166667,1671625077.856,527,128222,74428
54895,9848.665428166667,1671625077.856,527,128222,74428
54896,9848.67966595,1671625077.856,528,128132,74427
54896,9848.67966595,1671625077.856,528,128132,74427
54897,9848.693903733332,1671625077.856,526,128115,74385
54897,9848.693903733332,1671625077.856,526,128115,74385
54898,9848.708141516667,1671625077.856,527,128096,74373
54898,9848.708141516667,1671625077.856,527,128096,74373
54899,9848.7223793,1671625077.856,527,127982,74365
54899,9848.7223793,1671625077.856,527,127982,74365
54900,9848.737447149999,1671625077.947,528,127972,74340
54900,9848.737447149999,1671625077.947,528,127972,74340
54901,9848.752515,1671625077.947,528,127995,74319
54901,9848.752515,1671625077.947,528,127995,74319
54902,9848.76758285,1671625077.947,529,127908,74294
54902,9848.76758285,1671625077.947,529,127908,74294
54903,9848.782650699999,1671625077.947,527,127808,74255
54903,9848.782650699999,1671625077.947,527,127808,74255
54904,9848.79771855,1671625077.947,527,127736,74230
54904,9848.79771855,1671625077.947,527,127736,74230
54905,9848.8127864,1671625077.947,528,127641,74194
54905,9848.8127864,1671625077.947,528,127641,74194
54906,9848.829350799999,1671625078.046,528,127440,74152
54906,9848.829350799999,1671625078.046,528,127440,74152
54907,9848.8459152,1671625078.046,528,127419,74133
54907,9848.8459152,1671625078.046,528,127419,74133
54908,9848.8624796,1671625078.046,529,127297,74094
54908,9848.8624796,1671625078.046,529,127297,74094
54909,9848.879044,1671625078.046,528,127240,74094
54909,9848.879044,1671625078.046,528,127240,74094
54910,9848.895608399998,1671625078.046,527,127275,74074
54910,9848.895608399998,1671625078.046,527,127275,74074
54911,9848.9121728,1671625078.046,528,127281,74081
54911,9848.9121728,1671625078.046,528,127281,74081
54912,9848.9281249,1671625078.142,526,127257,74094
54912,9848.9281249,1671625078.142,526,127257,74094
54913,9848.944077,1671625078.142,527,127247,74075
54913,9848.944077,1671625078.142,527,127247,74075
54914,9848.960029099999,1671625078.142,527,127175,74068
54914,9848.960029099999,1671625078.142,527,127175,74068
54915,9848.9759812,1671625078.142,527,127223,74088
54915,9848.9759812,1671625078.142,527,127223,74088
54916,9848.9919333,1671625078.142,528,127242,74083
54916,9848.9919333,1671625078.142,528,127242,74083
54917,9849.0078854,1671625078.142,528,127315,74095
54917,9849.0078854,1671625078.142,528,127315,74095
54918,9849.023158616666,1671625078.233,527,127267,74099
54918,9849.023158616666,1671625078.233,527,127267,74099
54919,9849.038431833333,1671625078.233,527,127264,74082
54919,9849.038431833333,1671625078.233,527,127264,74082
54920,9849.053705049999,1671625078.233,526,127239,74088
54920,9849.053705049999,1671625078.233,526,127239,74088
54921,9849.068978266667,1671625078.233,525,127264,74106
54921,9849.068978266667,1671625078.233,525,127264,74106
54922,9849.084251483333,1671625078.233,525,127343,74113
54922,9849.084251483333,1671625078.233,525,127343,74113
54923,9849.0995247,1671625078.233,527,127410,74141
54923,9849.0995247,1671625078.233,527,127410,74141
54924,9849.114571133332,1671625078.324,528,127447,74191
54924,9849.114571133332,1671625078.324,528,127447,74191
54925,9849.129617566667,1671625078.324,526,127510,74208
54925,9849.129617566667,1671625078.324,526,127510,74208
54926,9849.144664,1671625078.324,526,127510,74232
54926,9849.144664,1671625078.324,526,127510,74232
54927,9849.159710433332,1671625078.324,525,127574,74260
54927,9849.159710433332,1671625078.324,525,127574,74260
54928,9849.174756866667,1671625078.324,524,127701,74253
54928,9849.174756866667,1671625078.324,524,127701,74253
54929,9849.1898033,1671625078.324,523,127624,74269
54929,9849.1898033,1671625078.324,523,127624,74269
54930,9849.206368733334,1671625078.423,525,127674,74284
54930,9849.206368733334,1671625078.423,525,127674,74284
54931,9849.222934166666,1671625078.423,526,127708,74288
54931,9849.222934166666,1671625078.423,526,127708,74288
54932,9849.2394996,1671625078.423,526,127694,74274
54932,9849.2394996,1671625078.423,526,127694,74274
54933,9849.256065033334,1671625078.423,526,127672,74254
54933,9849.256065033334,1671625078.423,526,127672,74254
54934,9849.266067574887,1671625078.423,526,127644,74230
54934,9849.273790075378,1671625078.423,526,127644,74230
54935,9849.28151257587,1671625078.423,526,127535,74212
54935,9849.289235076361,1671625078.423,526,127535,74212
54936,9849.296957576853,1671625078.522,524,127568,74231
54936,9849.304680077345,1671625078.522,524,127568,74231
54937,9849.312402577836,1671625078.522,523,127558,74219
54937,9849.320125078328,1671625078.522,523,127558,74219
54938,9849.32784757882,1671625078.522,524,127456,74216
54938,9849.33557007931,1671625078.522,524,127456,74216
54939,9849.343292579802,1671625078.522,526,127547,74203
54939,9849.351015080294,1671625078.522,526,127547,74203
54940,9849.358737580786,1671625078.522,528,127499,74183
54940,9849.366460081277,1671625078.522,528,127499,74183
54941,9849.374182581769,1671625078.522,526,127489,74170
54941,9849.38190508226,1671625078.522,526,127489,74170
54942,9849.389627582752,1671625078.607,527,127446,74164
54942,9849.397350083244,1671625078.607,527,127446,74164
54943,9849.405072583735,1671625078.607,525,127434,74156
54943,9849.412795084227,1671625078.607,525,127434,74156
54944,9849.42569109661,1671625078.607,525,127473,74163
54944,9849.432673210622,1671625078.607,525,127473,74163
54945,9849.439655324633,1671625078.607,526,127474,74172
54945,9849.446637438645,1671625078.607,526,127474,74172
54946,9849.453619552656,1671625078.607,527,127530,74179
54946,9849.460601666668,1671625078.607,527,127530,74179
54947,9849.467583780679,1671625078.607,527,127530,74159
54947,9849.47456589469,1671625078.607,527,127530,74159
54948,9849.481548008702,1671625078.703,527,127545,74200
54948,9849.488530122713,1671625078.703,527,127545,74200
54949,9849.495512236725,1671625078.703,527,127554,74208
54949,9849.502494350736,1671625078.703,527,127554,74208
54950,9849.509476464747,1671625078.703,526,127594,74208
54950,9849.516458578759,1671625078.703,526,127594,74208
54951,9849.52344069277,1671625078.703,526,127598,74215
54951,9849.530422806782,1671625078.703,526,127598,74215
54952,9849.537404920793,1671625078.703,525,127651,74220
54952,9849.544387034804,1671625078.703,525,127651,74220
54953,9849.551369148816,1671625078.703,527,127607,74192
54953,9849.558351262827,1671625078.703,527,127607,74192
54954,9849.578804022129,1671625078.793,526,127563,74182
54954,9849.586274512443,1671625078.793,526,127563,74182
54955,9849.593745002758,1671625078.793,528,127588,74173
54955,9849.601215493072,1671625078.793,528,127588,74173
54956,9849.608685983387,1671625078.793,529,127508,74161
54956,9849.616156473701,1671625078.793,529,127508,74161
54957,9849.623626964016,1671625078.793,526,127479,74136
54957,9849.63109745433,1671625078.793,526,127479,74136
54958,9849.638567944645,1671625078.793,527,127508,74089
54958,9849.64603843496,1671625078.793,527,127508,74089
54959,9849.653508925274,1671625078.793,526,127387,74130
54959,9849.660979415588,1671625078.793,526,127387,74130
54960,9849.668449905903,1671625078.894,525,127511,74141
54960,9849.675920396217,1671625078.894,525,127511,74141
54961,9849.683390886532,1671625078.894,527,127511,74178
54961,9849.690861376846,1671625078.894,527,127511,74178
54962,9849.698331867161,1671625078.894,525,127626,74200
54962,9849.705802357475,1671625078.894,525,127626,74200
54963,9849.71327284779,1671625078.894,525,127717,74232
54963,9849.720743338105,1671625078.894,525,127717,74232
54964,9849.737065175172,1671625078.894,527,127797,74245
54964,9849.74495131796,1671625078.894,527,127797,74245
54965,9849.752837460748,1671625078.894,526,127847,74252
54965,9849.760723603536,1671625078.894,526,127847,74252
54966,9849.768609746325,1671625078.986,527,127974,74280
54966,9849.776495889113,1671625078.986,527,127974,74280
54967,9849.784382031901,1671625078.986,527,127924,74278
54967,9849.79226817469,1671625078.986,527,127924,74278
54968,9849.800154317478,1671625078.986,524,127928,74271
54968,9849.808040460266,1671625078.986,524,127928,74271
54969,9849.815926603054,1671625078.986,526,127856,74266
54969,9849.823812745843,1671625078.986,526,127856,74266
54970,9849.83169888863,1671625078.986,527,127891,74234
54970,9849.83958503142,1671625078.986,527,127891,74234
54971,9849.847471174207,1671625078.986,528,127972,74255
54971,9849.855357316996,1671625078.986,528,127972,74255
54972,9849.863243459784,1671625079.077,526,127973,74255
54972,9849.871129602572,1671625079.077,526,127973,74255
54973,9849.87901574536,1671625079.077,527,127987,74262
54973,9849.886901888149,1671625079.077,527,127987,74262
54974,9849.892105861669,1671625079.077,527,127948,74228
54974,9849.89923139059,1671625079.077,527,127948,74228
54975,9849.90635691951,1671625079.077,526,127976,74223
54975,9849.91348244843,1671625079.077,526,127976,74223
54976,9849.92060797735,1671625079.077,527,127924,74207
54976,9849.92773350627,1671625079.077,527,127924,74207
54977,9849.934859035191,1671625079.077,527,127825,74207
54977,9849.941984564111,1671625079.077,527,127825,74207
54978,9849.949110093032,1671625079.168,527,127903,74234
54978,9849.956235621952,1671625079.168,527,127903,74234
54979,9849.963361150873,1671625079.168,529,127823,74236
54979,9849.970486679793,1671625079.168,529,127823,74236
54980,9849.977612208713,1671625079.168,529,127861,74226
54980,9849.984737737634,1671625079.168,529,127861,74226
54981,9849.991863266554,1671625079.168,528,127816,74224
54981,9849.998988795474,1671625079.168,528,127816,74224
54982,9850.006114324395,1671625079.168,528,127801,74206
54982,9850.013239853315,1671625079.168,528,127801,74206
54983,9850.020365382235,1671625079.168,526,127732,74225
54983,9850.027490911156,1671625079.168,526,127732,74225
54984,9850.043804223616,1671625079.276,528,127773,74217
54984,9850.050920868462,1671625079.276,528,127773,74217
54985,9850.058037513307,1671625079.276,528,127771,74185
54985,9850.065154158152,1671625079.276,528,127771,74185
54986,9850.072270802997,1671625079.276,528,127676,74191
54986,9850.079387447842,1671625079.276,528,127676,74191
54987,9850.086504092687,1671625079.276,529,127723,74192
54987,9850.093620737533,1671625079.276,529,127723,74192
54988,9850.100737382378,1671625079.276,528,127682,74172
54988,9850.107854027223,1671625079.276,528,127682,74172
54989,9850.114970672068,1671625079.276,528,127739,74174
54989,9850.122087316913,1671625079.276,528,127739,74174
54990,9850.129203961758,1671625079.357,528,127814,74161
54990,9850.136320606603,1671625079.357,528,127814,74161
54991,9850.143437251449,1671625079.357,528,127715,74166
54991,9850.150553896294,1671625079.357,528,127715,74166
54992,9850.157670541139,1671625079.357,530,127692,74141
54992,9850.164787185984,1671625079.357,530,127692,74141
54993,9850.17190383083,1671625079.357,531,127685,74120
54993,9850.179020475674,1671625079.357,531,127685,74120
54994,9850.204636686109,1671625079.357,530,127686,74099
54994,9850.211089184584,1671625079.357,530,127686,74099
54995,9850.21754168306,1671625079.357,530,127574,74050
54995,9850.223994181535,1671625079.357,530,127574,74050
54996,9850.23044668001,1671625079.45,529,127522,74065
54996,9850.236899178486,1671625079.45,529,127522,74065
54997,9850.243351676962,1671625079.45,530,127494,74102
54997,9850.249804175437,1671625079.45,530,127494,74102
54998,9850.256256673913,1671625079.45,529,127543,74091
54998,9850.262709172388,1671625079.45,529,127543,74091
54999,9850.269161670863,1671625079.45,530,127552,74062
54999,9850.275614169339,1671625079.45,530,127552,74062
55000,9850.282066667814,1671625079.45,530,127427,74026
55000,9850.28851916629,1671625079.45,530,127427,74026
55001,9850.294971664765,1671625079.45,530,127446,74002
55001,9850.30142416324,1671625079.45,530,127446,74002
55002,9850.307876661716,1671625079.554,531,127334,73991
55002,9850.314329160192,1671625079.554,531,127334,73991
55003,9850.320781658667,1671625079.554,531,127362,73957
55003,9850.327234157143,1671625079.554,531,127362,73957
55004,9850.360794003793,1671625079.554,530,127259,73933
55004,9850.368675815413,1671625079.554,530,127259,73933
55005,9850.376557627033,1671625079.554,529,127126,73918
55005,9850.384439438652,1671625079.554,529,127126,73918
55006,9850.392321250272,1671625079.554,531,127091,73887
55006,9850.400203061892,1671625079.554,531,127091,73887
55007,9850.408084873512,1671625079.554,529,127058,73892
55007,9850.415966685132,1671625079.554,529,127058,73892
55008,9850.423848496752,1671625079.639,528,127095,73887
55008,9850.431730308372,1671625079.639,528,127095,73887
55009,9850.439612119992,1671625079.639,530,127120,73899
55009,9850.447493931611,1671625079.639,530,127120,73899
55010,9850.455375743231,1671625079.639,529,127082,73912
55010,9850.463257554851,1671625079.639,529,127082,73912
55011,9850.471139366471,1671625079.639,530,127158,73900
55011,9850.479021178091,1671625079.639,530,127158,73900
55012,9850.48690298971,1671625079.639,529,127192,73904
55012,9850.49478480133,1671625079.639,529,127192,73904
55013,9850.50266661295,1671625079.639,529,127257,73926
55013,9850.51054842457,1671625079.639,529,127257,73926
55014,9850.514415063926,1671625079.738,529,127269,73940
55014,9850.521105620723,1671625079.738,529,127269,73940
55015,9850.52779617752,1671625079.738,528,127431,73979
55015,9850.534486734316,1671625079.738,528,127431,73979
55016,9850.541177291112,1671625079.738,528,127469,73964
55016,9850.547867847908,1671625079.738,528,127469,73964
55017,9850.554558404705,1671625079.738,529,127538,73989
55017,9850.561248961501,1671625079.738,529,127538,73989
55018,9850.567939518298,1671625079.738,529,127578,74016
55018,9850.574630075094,1671625079.738,529,127578,74016
55019,9850.58132063189,1671625079.738,530,127611,74026
55019,9850.588011188687,1671625079.738,530,127611,74026
55020,9850.594701745484,1671625079.821,530,127630,74046
55020,9850.60139230228,1671625079.821,530,127630,74046
55021,9850.608082859077,1671625079.821,529,127668,74014
55021,9850.614773415873,1671625079.821,529,127668,74014
55022,9850.62146397267,1671625079.821,528,127663,74012
55022,9850.628154529466,1671625079.821,528,127663,74012
55023,9850.634845086262,1671625079.821,528,127708,73993
55023,9850.641535643059,1671625079.821,528,127708,73993
55024,9850.668067469991,1671625079.821,529,127565,73949
55024,9850.674641142132,1671625079.821,529,127565,73949
55025,9850.681214814273,1671625079.821,530,127482,73948
55025,9850.687788486413,1671625079.821,530,127482,73948
55026,9850.694362158554,1671625079.934,531,127407,73919
55026,9850.700935830695,1671625079.934,531,127407,73919
55027,9850.707509502836,1671625079.934,530,127385,73901
55027,9850.714083174977,1671625079.934,530,127385,73901
55028,9850.720656847117,1671625079.934,530,127271,73848
55028,9850.727230519258,1671625079.934,530,127271,73848
55029,9850.733804191399,1671625079.934,532,127251,73858
55029,9850.74037786354,1671625079.934,532,127251,73858
55030,9850.74695153568,1671625079.934,531,127219,73831
55030,9850.753525207821,1671625079.934,531,127219,73831
55031,9850.760098879962,1671625079.934,529,127257,73844
55031,9850.766672552103,1671625079.934,529,127257,73844
55032,9850.773246224244,1671625080.019,529,127305,73836
55032,9850.779819896385,1671625080.019,529,127305,73836
55033,9850.786393568525,1671625080.019,532,127227,73837
55033,9850.792967240666,1671625080.019,532,127227,73837
55034,9850.838259229009,1671625080.019,532,127279,73846
55034,9850.845530556413,1671625080.019,532,127279,73846
55035,9850.852801883817,1671625080.019,533,127394,73864
55035,9850.86007321122,1671625080.019,533,127394,73864
55036,9850.867344538625,1671625080.019,531,127419,73880
55036,9850.874615866029,1671625080.019,531,127419,73880
55037,9850.881887193433,1671625080.019,532,127486,73900
55037,9850.889158520837,1671625080.019,532,127486,73900
55038,9850.89642984824,1671625080.105,532,127503,73923
55038,9850.903701175645,1671625080.105,532,127503,73923
55039,9850.910972503048,1671625080.105,531,127601,73932
55039,9850.918243830452,1671625080.105,531,127601,73932
55040,9850.925515157856,1671625080.105,531,127585,73966
55040,9850.93278648526,1671625080.105,531,127585,73966
55041,9850.940057812664,1671625080.105,531,127671,73962
55041,9850.947329140068,1671625080.105,531,127671,73962
55042,9850.954600467472,1671625080.105,531,127746,73984
55042,9850.961871794876,1671625080.105,531,127746,73984
55043,9850.96914312228,1671625080.105,534,127687,73984
55043,9850.976414449684,1671625080.105,534,127687,73984
55044,9850.980014386918,1671625080.217,533,127704,73980
55044,9850.9867568894,1671625080.217,533,127704,73980
55045,9850.993499391883,1671625080.217,532,127712,73968
55045,9851.000241894366,1671625080.217,532,127712,73968
55046,9851.006984396849,1671625080.217,531,127587,73954
55046,9851.013726899331,1671625080.217,531,127587,73954
55047,9851.020469401814,1671625080.217,530,127634,73937
55047,9851.027211904297,1671625080.217,530,127634,73937
55048,9851.03395440678,1671625080.217,533,127603,73915
55048,9851.040696909262,1671625080.217,533,127603,73915
55049,9851.047439411745,1671625080.217,531,127535,73927
55049,9851.054181914227,1671625080.217,531,127535,73927
55050,9851.06092441671,1671625080.292,532,127545,73907
55050,9851.067666919193,1671625080.292,532,127545,73907
55051,9851.074409421675,1671625080.292,533,127526,73900
55051,9851.081151924158,1671625080.292,533,127526,73900
55052,9851.08789442664,1671625080.292,531,127414,73906
55052,9851.094636929123,1671625080.292,531,127414,73906
55053,9851.101379431606,1671625080.292,532,127445,73901
55053,9851.108121934089,1671625080.292,532,127445,73901
55054,9851.14167299687,1671625080.292,531,127465,73892
55054,9851.147727500635,1671625080.292,531,127465,73892
55055,9851.1537820044,1671625080.292,529,127526,73912
55055,9851.159836508165,1671625080.292,529,127526,73912
55056,9851.16589101193,1671625080.389,531,127545,73932
55056,9851.171945515694,1671625080.389,531,127545,73932
55057,9851.17800001946,1671625080.389,531,127570,73931
55057,9851.184054523224,1671625080.389,531,127570,73931
55058,9851.19010902699,1671625080.389,531,127612,73932
55058,9851.196163530754,1671625080.389,531,127612,73932
55059,9851.20221803452,1671625080.389,532,127638,73918
55059,9851.208272538284,1671625080.389,532,127638,73918
55060,9851.21432704205,1671625080.389,532,127629,73941
55060,9851.220381545814,1671625080.389,532,127629,73941
55061,9851.22643604958,1671625080.389,532,127631,73962
55061,9851.232490553344,1671625080.389,532,127631,73962
55062,9851.23854505711,1671625080.497,531,127623,73935
55062,9851.244599560874,1671625080.497,531,127623,73935
55063,9851.25065406464,1671625080.497,530,127596,73913
55063,9851.256708568404,1671625080.497,530,127596,73913
55064,9851.301563445048,1671625080.497,529,127651,73930
55064,9851.309722869257,1671625080.497,529,127651,73930
55065,9851.317882293466,1671625080.497,531,127577,73918
55065,9851.326041717675,1671625080.497,531,127577,73918
55066,9851.334201141884,1671625080.497,531,127595,73912
55066,9851.342360566094,1671625080.497,531,127595,73912
55067,9851.350519990303,1671625080.497,531,127595,73896
55067,9851.358679414512,1671625080.497,531,127595,73896
55068,9851.366838838721,1671625080.572,532,127588,73880
55068,9851.37499826293,1671625080.572,532,127588,73880
55069,9851.38315768714,1671625080.572,531,127489,73878
55069,9851.391317111349,1671625080.572,531,127489,73878
55070,9851.399476535558,1671625080.572,529,127560,73881
55070,9851.407635959768,1671625080.572,529,127560,73881
55071,9851.415795383977,1671625080.572,527,127599,73881
55071,9851.423954808186,1671625080.572,527,127599,73881
55072,9851.432114232395,1671625080.572,528,127593,73898
55072,9851.440273656604,1671625080.572,528,127593,73898
55073,9851.448433080814,1671625080.572,529,127629,73912
55073,9851.456592505023,1671625080.572,529,127629,73912
55074,9851.44558247948,1671625080.668,529,127681,73952
55074,9851.451459541895,1671625080.668,529,127681,73952
55075,9851.45733660431,1671625080.668,530,127806,73965
55075,9851.463213666724,1671625080.668,530,127806,73965
55076,9851.469090729139,1671625080.668,530,127762,73941
55076,9851.474967791553,1671625080.668,530,127762,73941
55077,9851.480844853968,1671625080.668,529,127839,73969
55077,9851.486721916383,1671625080.668,529,127839,73969
55078,9851.492598978797,1671625080.668,528,127879,73996
55078,9851.498476041212,1671625080.668,528,127879,73996
55079,9851.504353103626,1671625080.668,529,127856,73973
55079,9851.51023016604,1671625080.668,529,127856,73973
55080,9851.516107228455,1671625080.769,530,127910,73988
55080,9851.52198429087,1671625080.769,530,127910,73988
55081,9851.527861353285,1671625080.769,529,127857,73982
55081,9851.5337384157,1671625080.769,529,127857,73982
55082,9851.539615478114,1671625080.769,531,127874,73977
55082,9851.545492540528,1671625080.769,531,127874,73977
55083,9851.551369602943,1671625080.769,531,127859,73971
55083,9851.557246665358,1671625080.769,531,127859,73971
55084,9851.61154898836,1671625080.769,530,127760,73935
55084,9851.619422361564,1671625080.769,530,127760,73935
55085,9851.627295734768,1671625080.769,531,127780,73918
55085,9851.635169107973,1671625080.769,531,127780,73918
55086,9851.643042481177,1671625080.856,529,127790,73921
55086,9851.650915854381,1671625080.856,529,127790,73921
55087,9851.658789227586,1671625080.856,529,127792,73926
55087,9851.66666260079,1671625080.856,529,127792,73926
55088,9851.674535973994,1671625080.856,530,127742,73902
55088,9851.682409347199,1671625080.856,530,127742,73902
55089,9851.690282720403,1671625080.856,530,127676,73908
55089,9851.698156093607,1671625080.856,530,127676,73908
55090,9851.706029466812,1671625080.856,531,127749,73906
55090,9851.713902840016,1671625080.856,531,127749,73906
55091,9851.72177621322,1671625080.856,532,127749,73910
55091,9851.729649586425,1671625080.856,532,127749,73910
55092,9851.73752295963,1671625080.949,530,127763,73913
55092,9851.745396332833,1671625080.949,530,127763,73913
55093,9851.753269706038,1671625080.949,530,127800,73939
55093,9851.761143079242,1671625080.949,530,127800,73939
55094,9851.762482634378,1671625080.949,528,127745,73919
55094,9851.769640521085,1671625080.949,528,127745,73919
55095,9851.776798407791,1671625080.949,529,127840,73926
55095,9851.783956294497,1671625080.949,529,127840,73926
55096,9851.791114181204,1671625080.949,531,127790,73926
55096,9851.79827206791,1671625080.949,531,127790,73926
55097,9851.805429954617,1671625080.949,530,127716,73914
55097,9851.812587841323,1671625080.949,530,127716,73914
55098,9851.81974572803,1671625081.043,531,127711,73905
55098,9851.826903614736,1671625081.043,531,127711,73905
55099,9851.834061501442,1671625081.043,531,127739,73903
55099,9851.841219388149,1671625081.043,531,127739,73903
55100,9851.848377274855,1671625081.043,530,127702,73868
55100,9851.855535161561,1671625081.043,530,127702,73868
55101,9851.862693048268,1671625081.043,532,127671,73874
55101,9851.869850934974,1671625081.043,532,127671,73874
55102,9851.87700882168,1671625081.043,531,127654,73868
55102,9851.884166708387,1671625081.043,531,127654,73868
55103,9851.891324595093,1671625081.043,531,127626,73816
55103,9851.8984824818,1671625081.043,531,127626,73816
55104,9851.918727873912,1671625081.14,529,127586,73823
55104,9851.926041639468,1671625081.14,529,127586,73823
55105,9851.933355405024,1671625081.14,530,127523,73815
55105,9851.94066917058,1671625081.14,530,127523,73815
55106,9851.947982936137,1671625081.14,532,127603,73792
55106,9851.955296701693,1671625081.14,532,127603,73792
55107,9851.96261046725,1671625081.14,531,127669,73829
55107,9851.969924232806,1671625081.14,531,127669,73829
55108,9851.977237998362,1671625081.14,531,127620,73822
55108,9851.984551763919,1671625081.14,531,127620,73822
55109,9851.991865529475,1671625081.14,529,127681,73836
55109,9851.999179295031,1671625081.14,529,127681,73836
55110,9852.006493060588,1671625081.233,530,127796,73862
55110,9852.013806826144,1671625081.233,530,127796,73862
55111,9852.0211205917,1671625081.233,528,127665,73831
55111,9852.028434357257,1671625081.233,528,127665,73831
55112,9852.035748122813,1671625081.233,530,127721,73860
55112,9852.04306188837,1671625081.233,530,127721,73860
55113,9852.050375653926,1671625081.233,530,127792,73869
55113,9852.057689419482,1671625081.233,530,127792,73869
55114,9852.077938673803,1671625081.233,531,127793,73873
55114,9852.08521711544,1671625081.233,531,127793,73873
55115,9852.092495557077,1671625081.233,530,127771,73863
55115,9852.099773998714,1671625081.233,530,127771,73863
55116,9852.107052440351,1671625081.344,530,127785,73845
55116,9852.114330881988,1671625081.344,530,127785,73845
55117,9852.121609323625,1671625081.344,532,127724,73872
55117,9852.128887765262,1671625081.344,532,127724,73872
55118,9852.1361662069,1671625081.344,529,127790,73869
55118,9852.143444648536,1671625081.344,529,127790,73869
55119,9852.150723090173,1671625081.344,530,127812,73846
55119,9852.15800153181,1671625081.344,530,127812,73846
55120,9852.165279973447,1671625081.344,531,127731,73840
55120,9852.172558415084,1671625081.344,531,127731,73840
55121,9852.179836856722,1671625081.344,530,127778,73842
55121,9852.187115298359,1671625081.344,530,127778,73842
55122,9852.194393739996,1671625081.417,531,127745,73827
55122,9852.201672181633,1671625081.417,531,127745,73827
55123,9852.20895062327,1671625081.417,531,127714,73828
55123,9852.216229064907,1671625081.417,531,127714,73828
55124,9852.243903973922,1671625081.417,532,127717,73809
55124,9852.250505695212,1671625081.417,532,127717,73809
55125,9852.257107416503,1671625081.417,532,127648,73770
55125,9852.263709137793,1671625081.417,532,127648,73770
55126,9852.270310859083,1671625081.417,531,127634,73765
55126,9852.276912580373,1671625081.417,531,127634,73765
55127,9852.283514301664,1671625081.417,531,127597,73769
55127,9852.290116022954,1671625081.417,531,127597,73769
55128,9852.296717744244,1671625081.515,532,127598,73764
55128,9852.303319465535,1671625081.515,532,127598,73764
55129,9852.309921186825,1671625081.515,532,127669,73770
55129,9852.316522908115,1671625081.515,532,127669,73770
55130,9852.323124629405,1671625081.515,532,127732,73765
55130,9852.329726350696,1671625081.515,532,127732,73765
55131,9852.336328071986,1671625081.515,531,127688,73778
55131,9852.342929793276,1671625081.515,531,127688,73778
55132,9852.349531514566,1671625081.515,530,127708,73792
55132,9852.356133235857,1671625081.515,530,127708,73792
55133,9852.362734957147,1671625081.515,529,127717,73785
55133,9852.369336678437,1671625081.515,529,127717,73785
55134,9852.391411176703,1671625081.604,529,127722,73799
55134,9852.399029995762,1671625081.604,529,127722,73799
55135,9852.406648814822,1671625081.604,528,127699,73796
55135,9852.414267633882,1671625081.604,528,127699,73796
55136,9852.421886452941,1671625081.604,528,127723,73802
55136,9852.429505272,1671625081.604,528,127723,73802
55137,9852.43712409106,1671625081.604,528,127797,73822
55137,9852.44474291012,1671625081.604,528,127797,73822
55138,9852.45236172918,1671625081.604,529,127897,73853
55138,9852.45998054824,1671625081.604,529,127897,73853
55139,9852.467599367299,1671625081.604,529,127916,73843
55139,9852.475218186359,1671625081.604,529,127916,73843
55140,9852.482837005418,1671625081.704,530,127913,73853
55140,9852.490455824478,1671625081.704,530,127913,73853
55141,9852.498074643538,1671625081.704,528,127928,73857
55141,9852.505693462597,1671625081.704,528,127928,73857
55142,9852.513312281657,1671625081.704,529,127962,73860
55142,9852.520931100717,1671625081.704,529,127962,73860
55143,9852.528549919776,1671625081.704,529,127952,73839
55143,9852.536168738836,1671625081.704,529,127952,73839
55144,9852.547134093347,1671625081.704,528,127866,73827
55144,9852.55489162564,1671625081.704,528,127866,73827
55145,9852.562649157931,1671625081.704,530,127810,73801
55145,9852.570406690224,1671625081.704,530,127810,73801
55146,9852.578164222516,1671625081.793,532,127803,73792
55146,9852.585921754808,1671625081.793,532,127803,73792
55147,9852.5936792871,1671625081.793,530,127755,73779
55147,9852.601436819392,1671625081.793,530,127755,73779
55148,9852.609194351684,1671625081.793,532,127718,73764
55148,9852.616951883976,1671625081.793,532,127718,73764
55149,9852.624709416268,1671625081.793,531,127668,73731
55149,9852.63246694856,1671625081.793,531,127668,73731
55150,9852.640224480852,1671625081.793,531,127538,73698
55150,9852.647982013144,1671625081.793,531,127538,73698
55151,9852.655739545437,1671625081.793,532,127524,73681
55151,9852.663497077729,1671625081.793,532,127524,73681
55152,9852.67125461002,1671625081.893,531,127516,73643
55152,9852.679012142313,1671625081.893,531,127516,73643
55153,9852.686769674605,1671625081.893,530,127514,73658
55153,9852.694527206897,1671625081.893,530,127514,73658
55154,9852.702105439177,1671625081.893,532,127450,73628
55154,9852.709690813168,1671625081.893,532,127450,73628
55155,9852.717276187159,1671625081.893,531,127488,73641
55155,9852.72486156115,1671625081.893,531,127488,73641
55156,9852.73244693514,1671625081.893,530,127522,73632
55156,9852.740032309131,1671625081.893,530,127522,73632
55157,9852.747617683122,1671625081.893,531,127401,73611
55157,9852.755203057113,1671625081.893,531,127401,73611
55158,9852.762788431104,1671625081.991,529,127483,73614
55158,9852.770373805095,1671625081.991,529,127483,73614
55159,9852.777959179086,1671625081.991,528,127512,73645
55159,9852.785544553077,1671625081.991,528,127512,73645
55160,9852.793129927068,1671625081.991,529,127596,73690
55160,9852.800715301059,1671625081.991,529,127596,73690
55161,9852.80830067505,1671625081.991,528,127652,73724
55161,9852.81588604904,1671625081.991,528,127652,73724
55162,9852.823471423031,1671625081.991,529,127734,73731
55162,9852.831056797022,1671625081.991,529,127734,73731
55163,9852.838642171013,1671625081.991,529,127879,73756
55163,9852.846227545004,1671625081.991,529,127879,73756
55164,9852.866948140532,1671625082.073,529,127821,73778
55164,9852.874566735849,1671625082.073,529,127821,73778
55165,9852.882185331166,1671625082.073,528,127954,73771
55165,9852.889803926482,1671625082.073,528,127954,73771
55166,9852.897422521799,1671625082.073,529,127928,73765
55166,9852.905041117116,1671625082.073,529,127928,73765
55167,9852.912659712432,1671625082.073,528,127890,73754
55167,9852.920278307749,1671625082.073,528,127890,73754
55168,9852.927896903066,1671625082.073,529,127886,73746
55168,9852.935515498382,1671625082.073,529,127886,73746
55169,9852.943134093699,1671625082.073,529,127842,73717
55169,9852.950752689016,1671625082.073,529,127842,73717
55170,9852.958371284332,1671625082.168,531,127821,73702
55170,9852.965989879649,1671625082.168,531,127821,73702
55171,9852.973608474966,1671625082.168,531,127793,73678
55171,9852.981227070282,1671625082.168,531,127793,73678
55172,9852.988845665599,1671625082.168,531,127742,73662
55172,9852.996464260916,1671625082.168,531,127742,73662
55173,9853.004082856232,1671625082.168,529,127679,73651
55173,9853.011701451549,1671625082.168,529,127679,73651
55174,9853.012060961717,1671625082.168,528,127758,73661
55174,9853.019459647185,1671625082.168,528,127758,73661
55175,9853.026858332652,1671625082.168,530,127612,73618
55175,9853.03425701812,1671625082.168,530,127612,73618
55176,9853.041655703588,1671625082.268,528,127727,73634
55176,9853.049054389056,1671625082.268,528,127727,73634
55177,9853.056453074523,1671625082.268,529,127621,73629
55177,9853.063851759991,1671625082.268,529,127621,73629
55178,9853.071250445459,1671625082.268,530,127606,73615
55178,9853.078649130926,1671625082.268,530,127606,73615
55179,9853.086047816394,1671625082.268,530,127468,73587
55179,9853.093446501862,1671625082.268,530,127468,73587
55180,9853.10084518733,1671625082.268,530,127557,73620
55180,9853.108243872797,1671625082.268,530,127557,73620
55181,9853.115642558265,1671625082.268,528,127464,73604
55181,9853.123041243733,1671625082.268,528,127464,73604
55182,9853.1304399292,1671625082.371,528,127564,73608
55182,9853.137838614668,1671625082.371,528,127564,73608
55183,9853.145237300136,1671625082.371,527,127629,73624
55183,9853.152635985603,1671625082.371,527,127629,73624
55184,9853.179124541959,1671625082.371,528,127644,73650
55184,9853.187073124793,1671625082.371,528,127644,73650
55185,9853.195021707626,1671625082.371,527,127718,73691
55185,9853.20297029046,1671625082.371,527,127718,73691
55186,9853.210918873294,1671625082.371,527,127685,73686
55186,9853.218867456128,1671625082.371,527,127685,73686
55187,9853.226816038961,1671625082.371,527,127723,73688
55187,9853.234764621795,1671625082.371,527,127723,73688
55188,9853.242713204629,1671625082.454,527,127743,73656
55188,9853.250661787462,1671625082.454,527,127743,73656
55189,9853.258610370296,1671625082.454,526,127698,73657
55189,9853.26655895313,1671625082.454,526,127698,73657
55190,9853.274507535963,1671625082.454,526,127635,73661
55190,9853.282456118797,1671625082.454,526,127635,73661
55191,9853.29040470163,1671625082.454,527,127722,73641
55191,9853.298353284465,1671625082.454,527,127722,73641
55192,9853.306301867298,1671625082.454,527,127668,73655
55192,9853.314250450132,1671625082.454,527,127668,73655
55193,9853.322199032966,1671625082.454,528,127626,73612
55193,9853.3301476158,1671625082.454,528,127626,73612
55194,9853.32908478511,1671625082.543,529,127691,73626
55194,9853.335625753485,1671625082.543,529,127691,73626
55195,9853.34216672186,1671625082.543,528,127649,73594
55195,9853.348707690237,1671625082.543,528,127649,73594
55196,9853.355248658612,1671625082.543,529,127568,73572
55196,9853.361789626988,1671625082.543,529,127568,73572
55197,9853.368330595364,1671625082.543,526,127475,73542
55197,9853.37487156374,1671625082.543,526,127475,73542
55198,9853.381412532115,1671625082.543,528,127432,73518
55198,9853.38795350049,1671625082.543,528,127432,73518
55199,9853.394494468866,1671625082.543,527,127407,73502
55199,9853.401035437242,1671625082.543,527,127407,73502
55200,9853.407576405618,1671625082.639,529,127350,73472
55200,9853.414117373994,1671625082.639,529,127350,73472
55201,9853.42065834237,1671625082.639,527,127286,73482
55201,9853.427199310745,1671625082.639,527,127286,73482
55202,9853.43374027912,1671625082.639,529,127289,73457
55202,9853.440281247496,1671625082.639,529,127289,73457
55203,9853.446822215872,1671625082.639,527,127410,73478
55203,9853.453363184248,1671625082.639,527,127410,73478
55204,9853.482615192548,1671625082.639,529,127340,73488
55204,9853.490063131405,1671625082.639,529,127340,73488
55205,9853.497511070262,1671625082.639,527,127406,73494
55205,9853.504959009118,1671625082.639,527,127406,73494
55206,9853.512406947975,1671625082.734,526,127434,73492
55206,9853.519854886832,1671625082.734,526,127434,73492
55207,9853.527302825689,1671625082.734,524,127354,73506
55207,9853.534750764546,1671625082.734,524,127354,73506
55208,9853.542198703402,1671625082.734,526,127433,73522
55208,9853.54964664226,1671625082.734,526,127433,73522
55209,9853.557094581116,1671625082.734,526,127460,73500
55209,9853.564542519973,1671625082.734,526,127460,73500
55210,9853.57199045883,1671625082.734,526,127523,73526
55210,9853.579438397686,1671625082.734,526,127523,73526
55211,9853.586886336543,1671625082.734,527,127518,73505
55211,9853.5943342754,1671625082.734,527,127518,73505
55212,9853.601782214257,1671625082.823,526,127543,73481
55212,9853.609230153113,1671625082.823,526,127543,73481
55213,9853.61667809197,1671625082.823,526,127555,73521
55213,9853.624126030827,1671625082.823,526,127555,73521
55214,9853.639343430119,1671625082.823,526,127505,73479
55214,9853.646446715415,1671625082.823,526,127505,73479
55215,9853.65355000071,1671625082.823,527,127480,73481
55215,9853.660653286006,1671625082.823,527,127480,73481
55216,9853.667756571302,1671625082.823,527,127439,73473
55216,9853.674859856597,1671625082.823,527,127439,73473
55217,9853.681963141893,1671625082.823,528,127378,73439
55217,9853.689066427189,1671625082.823,528,127378,73439
55218,9853.696169712484,1671625082.922,528,127369,73419
55218,9853.70327299778,1671625082.922,528,127369,73419
55219,9853.710376283076,1671625082.922,527,127348,73428
55219,9853.717479568371,1671625082.922,527,127348,73428
55220,9853.724582853667,1671625082.922,528,127290,73405
55220,9853.731686138963,1671625082.922,528,127290,73405
55221,9853.738789424258,1671625082.922,525,127252,73400
55221,9853.745892709554,1671625082.922,525,127252,73400
55222,9853.75299599485,1671625082.922,527,127212,73381
55222,9853.760099280145,1671625082.922,527,127212,73381
55223,9853.767202565441,1671625082.922,527,127152,73363
55223,9853.774305850737,1671625082.922,527,127152,73363
55224,9853.798040453452,1671625083.018,528,127102,73359
55224,9853.805741837648,1671625083.018,528,127102,73359
55225,9853.813443221845,1671625083.018,527,127124,73342
55225,9853.821144606041,1671625083.018,527,127124,73342
55226,9853.828845990238,1671625083.018,529,127086,73368
55226,9853.836547374434,1671625083.018,529,127086,73368
55227,9853.84424875863,1671625083.018,527,127083,73345
55227,9853.851950142827,1671625083.018,527,127083,73345
55228,9853.859651527024,1671625083.018,525,127185,73369
55228,9853.86735291122,1671625083.018,525,127185,73369
55229,9853.875054295417,1671625083.018,526,127081,73357
55229,9853.882755679613,1671625083.018,526,127081,73357
55230,9853.89045706381,1671625083.12,525,127001,73333
55230,9853.898158448006,1671625083.12,525,127001,73333
55231,9853.905859832203,1671625083.12,525,127090,73326
55231,9853.9135612164,1671625083.12,525,127090,73326
55232,9853.921262600596,1671625083.12,527,127065,73316
55232,9853.928963984792,1671625083.12,527,127065,73316
55233,9853.936665368989,1671625083.12,527,127063,73303
55233,9853.944366753185,1671625083.12,527,127063,73303
55234,9853.963041168872,1671625083.12,527,127027,73297
55234,9853.97098919196,1671625083.12,527,127027,73297
55235,9853.978937215046,1671625083.12,527,127037,73300
55235,9853.986885238133,1671625083.12,527,127037,73300
55236,9853.99483326122,1671625083.201,527,126990,73270
55236,9854.002781284307,1671625083.201,527,126990,73270
55237,9854.010729307394,1671625083.201,525,126984,73284
55237,9854.018677330481,1671625083.201,525,126984,73284
55238,9854.026625353568,1671625083.201,525,126878,73267
55238,9854.034573376655,1671625083.201,525,126878,73267
55239,9854.042521399742,1671625083.201,526,126919,73232
55239,9854.05046942283,1671625083.201,526,126919,73232
55240,9854.058417445916,1671625083.201,526,126878,73221
55240,9854.066365469003,1671625083.201,526,126878,73221
55241,9854.07431349209,1671625083.201,528,126861,73201
55241,9854.082261515177,1671625083.201,528,126861,73201
55242,9854.090209538264,1671625083.293,527,126776,73179
55242,9854.098157561351,1671625083.293,527,126776,73179
55243,9854.106105584438,1671625083.293,527,126789,73200
55243,9854.114053607525,1671625083.293,527,126789,73200
55244,9854.10651246623,1671625083.293,526,126710,73185
55244,9854.113436208125,1671625083.293,526,126710,73185
55245,9854.12035995002,1671625083.293,526,126785,73184
55245,9854.127283691916,1671625083.293,526,126785,73184
55246,9854.134207433812,1671625083.293,525,126762,73197
55246,9854.141131175707,1671625083.293,525,126762,73197
55247,9854.148054917603,1671625083.293,525,126781,73195
55247,9854.154978659499,1671625083.293,525,126781,73195
55248,9854.161902401394,1671625083.388,526,126780,73179
55248,9854.16882614329,1671625083.388,526,126780,73179
55249,9854.175749885186,1671625083.388,527,126766,73208
55249,9854.182673627081,1671625083.388,527,126766,73208
55250,9854.189597368977,1671625083.388,528,126787,73186
55250,9854.196521110873,1671625083.388,528,126787,73186
55251,9854.203444852768,1671625083.388,525,126731,73177
55251,9854.210368594664,1671625083.388,525,126731,73177
55252,9854.21729233656,1671625083.388,526,126813,73198
55252,9854.224216078455,1671625083.388,526,126813,73198
55253,9854.231139820351,1671625083.388,526,126815,73208
55253,9854.238063562247,1671625083.388,526,126815,73208
55254,9854.264238005471,1671625083.483,525,126912,73224
55254,9854.271693541848,1671625083.483,525,126912,73224
55255,9854.279149078226,1671625083.483,526,126842,73219
55255,9854.286604614603,1671625083.483,526,126842,73219
55256,9854.29406015098,1671625083.483,525,126860,73225
55256,9854.301515687357,1671625083.483,525,126860,73225
55257,9854.308971223734,1671625083.483,526,126928,73227
55257,9854.316426760111,1671625083.483,526,126928,73227
55258,9854.323882296489,1671625083.483,525,126999,73219
55258,9854.331337832866,1671625083.483,525,126999,73219
55259,9854.338793369243,1671625083.483,525,126859,73197
55259,9854.34624890562,1671625083.483,525,126859,73197
55260,9854.353704441997,1671625083.572,526,126892,73209
55260,9854.361159978374,1671625083.572,526,126892,73209
55261,9854.368615514752,1671625083.572,526,126851,73225
55261,9854.376071051129,1671625083.572,526,126851,73225
55262,9854.383526587506,1671625083.572,525,126782,73196
55262,9854.390982123883,1671625083.572,525,126782,73196
55263,9854.39843766026,1671625083.572,525,126733,73167
55263,9854.405893196637,1671625083.572,525,126733,73167
55264,9854.418063787733,1671625083.572,525,126670,73139
55264,9854.425060693526,1671625083.572,525,126670,73139
55265,9854.432057599319,1671625083.572,527,126604,73125
55265,9854.439054505112,1671625083.572,527,126604,73125
55266,9854.446051410905,1671625083.663,526,126523,73083
55266,9854.453048316698,1671625083.663,526,126523,73083
55267,9854.460045222491,1671625083.663,527,126510,73088
55267,9854.467042128284,1671625083.663,527,126510,73088
55268,9854.474039034078,1671625083.663,526,126458,73066
55268,9854.48103593987,1671625083.663,526,126458,73066
55269,9854.488032845664,1671625083.663,526,126355,73055
55269,9854.495029751457,1671625083.663,526,126355,73055
55270,9854.50202665725,1671625083.663,526,126426,73043
55270,9854.509023563043,1671625083.663,526,126426,73043
55271,9854.516020468836,1671625083.663,527,126333,73059
55271,9854.52301737463,1671625083.663,527,126333,73059
55272,9854.530014280423,1671625083.767,526,126290,73020
55272,9854.537011186216,1671625083.767,526,126290,73020
55273,9854.544008092009,1671625083.767,528,126365,73042
55273,9854.551004997802,1671625083.767,528,126365,73042
55274,9854.57354341712,1671625083.767,527,126265,73041
55274,9854.5813399644,1671625083.767,527,126265,73041
55275,9854.589136511679,1671625083.767,525,126287,73025
55275,9854.596933058958,1671625083.767,525,126287,73025
55276,9854.604729606237,1671625083.767,526,126351,73013
55276,9854.612526153516,1671625083.767,526,126351,73013
55277,9854.620322700795,1671625083.767,526,126289,73018
55277,9854.628119248075,1671625083.767,526,126289,73018
55278,9854.635915795354,1671625083.859,524,126331,73030
55278,9854.643712342633,1671625083.859,524,126331,73030
55279,9854.651508889912,1671625083.859,526,126240,72998
55279,9854.659305437192,1671625083.859,526,126240,72998
55280,9854.66710198447,1671625083.859,525,126314,73004
55280,9854.67489853175,1671625083.859,525,126314,73004
55281,9854.68269507903,1671625083.859,526,126231,72989
55281,9854.690491626308,1671625083.859,526,126231,72989
55282,9854.698288173588,1671625083.859,527,126183,72991
55282,9854.706084720867,1671625083.859,527,126183,72991
55283,9854.713881268146,1671625083.859,527,126120,72995
55283,9854.721677815425,1671625083.859,527,126120,72995
55284,9854.73444713533,1671625083.949,525,126162,72983
55284,9854.741664650734,1671625083.949,525,126162,72983
55285,9854.748882166137,1671625083.949,524,126268,72983
55285,9854.756099681541,1671625083.949,524,126268,72983
55286,9854.763317196945,1671625083.949,527,126232,72991
55286,9854.770534712348,1671625083.949,527,126232,72991
55287,9854.777752227752,1671625083.949,527,126183,72959
55287,9854.784969743156,1671625083.949,527,126183,72959
55288,9854.79218725856,1671625083.949,525,126146,72955
55288,9854.799404773963,1671625083.949,525,126146,72955
55289,9854.806622289367,1671625083.949,527,126162,72957
55289,9854.81383980477,1671625083.949,527,126162,72957
55290,9854.821057320174,1671625084.043,527,126148,72959
55290,9854.828274835578,1671625084.043,527,126148,72959
55291,9854.835492350981,1671625084.043,527,126149,72949
55291,9854.842709866385,1671625084.043,527,126149,72949
55292,9854.849927381789,1671625084.043,526,126150,72945
55292,9854.857144897192,1671625084.043,526,126150,72945
55293,9854.864362412596,1671625084.043,526,126178,72944
55293,9854.871579928,1671625084.043,526,126178,72944
55294,9854.887088762904,1671625084.043,526,126097,72952
55294,9854.89439395698,1671625084.043,526,126097,72952
55295,9854.901699151056,1671625084.043,527,126158,72965
55295,9854.909004345132,1671625084.043,527,126158,72965
55296,9854.916309539209,1671625084.141,526,126123,72949
55296,9854.923614733285,1671625084.141,526,126123,72949
55297,9854.930919927361,1671625084.141,529,126136,72957
55297,9854.938225121437,1671625084.141,529,126136,72957
55298,9854.945530315514,1671625084.141,528,126161,72972
55298,9854.95283550959,1671625084.141,528,126161,72972
55299,9854.960140703666,1671625084.141,527,126207,72991
55299,9854.967445897742,1671625084.141,527,126207,72991
55300,9854.974751091819,1671625084.141,526,126213,73000
55300,9854.982056285895,1671625084.141,526,126213,73000
55301,9854.989361479971,1671625084.141,527,126255,72996
55301,9854.996666674047,1671625084.141,527,126255,72996
55302,9855.003971868124,1671625084.23,527,126221,73000
55302,9855.0112770622,1671625084.23,527,126221,73000
55303,9855.018582256276,1671625084.23,527,126201,72999
55303,9855.025887450352,1671625084.23,527,126201,72999
55304,9855.046607686822,1671625084.23,526,126230,72998
55304,9855.053767358044,1671625084.23,526,126230,72998
55305,9855.060927029266,1671625084.23,528,126172,72996
55305,9855.068086700488,1671625084.23,528,126172,72996
55306,9855.07524637171,1671625084.23,528,126092,72970
55306,9855.082406042933,1671625084.23,528,126092,72970
55307,9855.089565714155,1671625084.23,527,126082,72973
55307,9855.096725385378,1671625084.23,527,126082,72973
55308,9855.1038850566,1671625084.323,526,126067,72977
55308,9855.111044727822,1671625084.323,526,126067,72977
55309,9855.118204399045,1671625084.323,526,126025,72946
55309,9855.125364070267,1671625084.323,526,126025,72946
55310,9855.13252374149,1671625084.323,527,125986,72951
55310,9855.139683412712,1671625084.323,527,125986,72951
55311,9855.146843083934,1671625084.323,527,125962,72915
55311,9855.154002755156,1671625084.323,527,125962,72915
55312,9855.161162426379,1671625084.323,527,125951,72930
55312,9855.168322097601,1671625084.323,527,125951,72930
55313,9855.175481768823,1671625084.323,526,125966,72916
55313,9855.182641440046,1671625084.323,526,125966,72916
55314,9855.198910508836,1671625084.421,526,125872,72919
55314,9855.206187206235,1671625084.421,526,125872,72919
55315,9855.213463903634,1671625084.421,528,125839,72908
55315,9855.220740601033,1671625084.421,528,125839,72908
55316,9855.228017298432,1671625084.421,527,125867,72930
55316,9855.235293995831,1671625084.421,527,125867,72930
55317,9855.24257069323,1671625084.421,526,125751,72891
55317,9855.249847390629,1671625084.421,526,125751,72891
55318,9855.257124088028,1671625084.421,525,125819,72885
55318,9855.264400785427,1671625084.421,525,125819,72885
55319,9855.271677482826,1671625084.421,527,125787,72887
55319,9855.278954180225,1671625084.421,527,125787,72887
55320,9855.286230877624,1671625084.522,525,125751,72899
55320,9855.293507575023,1671625084.522,525,125751,72899
55321,9855.300784272422,1671625084.522,527,125841,72919
55321,9855.30806096982,1671625084.522,527,125841,72919
55322,9855.31533766722,1671625084.522,527,125775,72904
55322,9855.322614364619,1671625084.522,527,125775,72904
55323,9855.329891062018,1671625084.522,527,125836,72928
55323,9855.337167759417,1671625084.522,527,125836,72928
55324,9855.36441618077,1671625084.522,526,125796,72913
55324,9855.372295390105,1671625084.522,526,125796,72913
55325,9855.38017459944,1671625084.522,525,125820,72889
55325,9855.388053808776,1671625084.522,525,125820,72889
55326,9855.395933018111,1671625084.612,525,125829,72901
55326,9855.403812227447,1671625084.612,525,125829,72901
55327,9855.411691436782,1671625084.612,525,125866,72922
55327,9855.419570646118,1671625084.612,525,125866,72922
55328,9855.427449855453,1671625084.612,527,125898,72932
55328,9855.435329064789,1671625084.612,527,125898,72932
55329,9855.443208274124,1671625084.612,526,125809,72927
55329,9855.45108748346,1671625084.612,526,125809,72927
55330,9855.458966692795,1671625084.612,527,125878,72921
55330,9855.46684590213,1671625084.612,527,125878,72921
55331,9855.474725111466,1671625084.612,526,125816,72936
55331,9855.482604320801,1671625084.612,526,125816,72936
55332,9855.490483530137,1671625084.696,526,125928,72926
55332,9855.498362739472,1671625084.696,526,125928,72926
55333,9855.506241948808,1671625084.696,526,125868,72958
55333,9855.514121158143,1671625084.696,526,125868,72958
55334,9855.515384259656,1671625084.696,525,125910,72940
55334,9855.522098581197,1671625084.696,525,125910,72940
55335,9855.52881290274,1671625084.696,527,125834,72948
55335,9855.535527224281,1671625084.696,527,125834,72948
55336,9855.542241545823,1671625084.696,527,125920,72949
55336,9855.548955867365,1671625084.696,527,125920,72949
55337,9855.555670188907,1671625084.696,528,125810,72948
55337,9855.56238451045,1671625084.696,528,125810,72948
55338,9855.569098831991,1671625084.796,526,125952,72958
55338,9855.575813153533,1671625084.796,526,125952,72958
55339,9855.582527475075,1671625084.796,527,125911,72965
55339,9855.589241796617,1671625084.796,527,125911,72965
55340,9855.595956118159,1671625084.796,527,125920,72958
55340,9855.6026704397,1671625084.796,527,125920,72958
55341,9855.609384761243,1671625084.796,524,125987,72975
55341,9855.616099082785,1671625084.796,524,125987,72975
55342,9855.622813404327,1671625084.796,526,125978,72972
55342,9855.629527725869,1671625084.796,526,125978,72972
55343,9855.63624204741,1671625084.796,528,125939,73002
55343,9855.642956368953,1671625084.796,528,125939,73002
55344,9855.672353267828,1671625084.896,527,125962,73002
55344,9855.680133380549,1671625084.896,527,125962,73002
55345,9855.68791349327,1671625084.896,527,125984,73003
55345,9855.69569360599,1671625084.896,527,125984,73003
55346,9855.703473718711,1671625084.896,527,125983,72937
55346,9855.711253831432,1671625084.896,527,125983,72937
55347,9855.719033944153,1671625084.896,527,125892,72830
55347,9855.726814056874,1671625084.896,527,125892,72830
55348,9855.734594169595,1671625084.896,524,125834,72655
55348,9855.742374282316,1671625084.896,524,125834,72655
55349,9855.750154395037,1671625084.896,522,125674,72449
55349,9855.757934507757,1671625084.896,522,125674,72449
55350,9855.765714620478,1671625084.984,521,125629,72221
55350,9855.7734947332,1671625084.984,521,125629,72221
55351,9855.78127484592,1671625084.984,522,125515,72015
55351,9855.789054958641,1671625084.984,522,125515,72015
55352,9855.796835071362,1671625084.984,520,125477,71836
55352,9855.804615184083,1671625084.984,520,125477,71836
55353,9855.812395296804,1671625084.984,521,125486,71697
55353,9855.820175409524,1671625084.984,521,125486,71697
55354,9855.829905568042,1671625084.984,517,125545,71586
55354,9855.836854921658,1671625084.984,517,125545,71586
55355,9855.843804275273,1671625084.984,518,125527,71515
55355,9855.850753628889,1671625084.984,518,125527,71515
55356,9855.857702982505,1671625085.089,516,125524,71474
55356,9855.86465233612,1671625085.089,516,125524,71474
55357,9855.871601689736,1671625085.089,517,125498,71480
55357,9855.878551043352,1671625085.089,517,125498,71480
55358,9855.885500396967,1671625085.089,517,125441,71476
55358,9855.892449750583,1671625085.089,517,125441,71476
55359,9855.899399104199,1671625085.089,517,125466,71466
55359,9855.906348457815,1671625085.089,517,125466,71466
55360,9855.91329781143,1671625085.089,517,125419,71498
55360,9855.920247165046,1671625085.089,517,125419,71498
55361,9855.927196518662,1671625085.089,518,125423,71567
55361,9855.934145872277,1671625085.089,518,125423,71567
55362,9855.941095225893,1671625085.172,518,125320,71652
55362,9855.948044579509,1671625085.172,518,125320,71652
55363,9855.954993933125,1671625085.172,518,125257,71809
55363,9855.96194328674,1671625085.172,518,125257,71809
55364,9855.992330429921,1671625085.172,519,125293,71973
55364,9855.999328237715,1671625085.172,519,125293,71973
55365,9856.006326045508,1671625085.172,518,125306,72053
55365,9856.013323853302,1671625085.172,518,125306,72053
55366,9856.020321661095,1671625085.172,521,125451,72113
55366,9856.027319468889,1671625085.172,521,125451,72113
55367,9856.034317276682,1671625085.172,522,125429,72149
55367,9856.041315084476,1671625085.172,522,125429,72149
55368,9856.04831289227,1671625085.264,523,125456,72243
55368,9856.055310700063,1671625085.264,523,125456,72243
55369,9856.062308507857,1671625085.264,525,125495,72335
55369,9856.06930631565,1671625085.264,525,125495,72335
55370,9856.076304123444,1671625085.264,525,125539,72394
55370,9856.083301931238,1671625085.264,525,125539,72394
55371,9856.090299739031,1671625085.264,525,125542,72512
55371,9856.097297546825,1671625085.264,525,125542,72512
55372,9856.104295354618,1671625085.264,525,125525,72551
55372,9856.111293162412,1671625085.264,525,125525,72551
55373,9856.118290970206,1671625085.264,527,125545,72618
55373,9856.125288778,1671625085.264,527,125545,72618
55374,9856.139640461097,1671625085.356,527,125608,72667
55374,9856.146818446301,1671625085.356,527,125608,72667
55375,9856.153996431505,1671625085.356,527,125543,72689
55375,9856.16117441671,1671625085.356,527,125543,72689
55376,9856.168352401914,1671625085.356,530,125611,72689
55376,9856.175530387118,1671625085.356,530,125611,72689
55377,9856.182708372322,1671625085.356,529,125641,72719
55377,9856.189886357526,1671625085.356,529,125641,72719
55378,9856.19706434273,1671625085.356,527,125599,72745
55378,9856.204242327934,1671625085.356,527,125599,72745
55379,9856.211420313139,1671625085.356,527,125623,72759
55379,9856.218598298343,1671625085.356,527,125623,72759
55380,9856.225776283547,1671625085.448,527,125649,72758
55380,9856.232954268751,1671625085.448,527,125649,72758
55381,9856.240132253955,1671625085.448,525,125770,72787
55381,9856.24731023916,1671625085.448,525,125770,72787
55382,9856.254488224364,1671625085.448,528,125680,72759
55382,9856.261666209568,1671625085.448,528,125680,72759
55383,9856.268844194772,1671625085.448,526,125690,72777
55383,9856.276022179976,1671625085.448,526,125690,72777
55384,9856.293028080992,1671625085.448,528,125655,72759
55384,9856.30026728321,1671625085.448,528,125655,72759
55385,9856.307506485427,1671625085.448,529,125692,72769
55385,9856.314745687645,1671625085.448,529,125692,72769
55386,9856.321984889863,1671625085.549,526,125723,72748
55386,9856.32922409208,1671625085.549,526,125723,72748
55387,9856.336463294298,1671625085.549,528,125693,72773
55387,9856.343702496515,1671625085.549,528,125693,72773
55388,9856.350941698733,1671625085.549,527,125753,72776
55388,9856.35818090095,1671625085.549,527,125753,72776
55389,9856.365420103168,1671625085.549,528,125645,72749
55389,9856.372659305385,1671625085.549,528,125645,72749
55390,9856.379898507603,1671625085.549,526,125693,72745
55390,9856.38713770982,1671625085.549,526,125693,72745
55391,9856.394376912038,1671625085.549,527,125723,72761
55391,9856.401616114255,1671625085.549,527,125723,72761
55392,9856.408855316473,1671625085.645,528,125786,72774
55392,9856.41609451869,1671625085.645,528,125786,72774
55393,9856.423333720908,1671625085.645,528,125778,72784
55393,9856.430572923126,1671625085.645,528,125778,72784
55394,9856.457440499735,1671625085.645,528,125782,72780
55394,9856.465065504737,1671625085.645,528,125782,72780
55395,9856.47269050974,1671625085.645,526,125715,72780
55395,9856.480315514742,1671625085.645,526,125715,72780
55396,9856.487940519744,1671625085.645,527,125728,72784
55396,9856.495565524747,1671625085.645,527,125728,72784
55397,9856.50319052975,1671625085.645,526,125700,72769
55397,9856.510815534752,1671625085.645,526,125700,72769
55398,9856.518440539754,1671625085.735,526,125739,72781
55398,9856.526065544756,1671625085.735,526,125739,72781
55399,9856.533690549759,1671625085.735,527,125637,72769
55399,9856.541315554761,1671625085.735,527,125637,72769
55400,9856.548940559764,1671625085.735,528,125671,72777
55400,9856.556565564766,1671625085.735,528,125671,72777
55401,9856.564190569768,1671625085.735,526,125679,72780
55401,9856.57181557477,1671625085.735,526,125679,72780
55402,9856.579440579773,1671625085.735,528,125663,72769
55402,9856.587065584776,1671625085.735,528,125663,72769
55403,9856.594690589778,1671625085.735,526,125664,72790
55403,9856.60231559478,1671625085.735,526,125664,72790
55404,9856.610320191625,1671625085.824,526,125649,72777
55404,9856.617323912335,1671625085.824,526,125649,72777
55405,9856.624327633044,1671625085.824,525,125698,72768
55405,9856.631331353754,1671625085.824,525,125698,72768
55406,9856.638335074464,1671625085.824,527,125622,72769
55406,9856.645338795173,1671625085.824,527,125622,72769
55407,9856.652342515883,1671625085.824,526,125593,72757
55407,9856.659346236593,1671625085.824,526,125593,72757
55408,9856.666349957302,1671625085.824,529,125520,72761
55408,9856.673353678012,1671625085.824,529,125520,72761
55409,9856.680357398722,1671625085.824,528,125599,72747
55409,9856.687361119431,1671625085.824,528,125599,72747
55410,9856.694364840141,1671625085.921,526,125579,72769
55410,9856.70136856085,1671625085.921,526,125579,72769
55411,9856.70837228156,1671625085.921,527,125613,72757
55411,9856.71537600227,1671625085.921,527,125613,72757
55412,9856.72237972298,1671625085.921,526,125605,72749
55412,9856.72938344369,1671625085.921,526,125605,72749
55413,9856.7363871644,1671625085.921,526,125579,72760
55413,9856.743390885109,1671625085.921,526,125579,72760
55414,9856.764865439733,1671625085.921,526,125579,72768
55414,9856.772397323417,1671625085.921,526,125579,72768
55415,9856.779929207101,1671625085.921,526,125591,72750
55415,9856.787461090786,1671625085.921,526,125591,72750
55416,9856.79499297447,1671625086.016,529,125589,72745
55416,9856.802524858154,1671625086.016,529,125589,72745
55417,9856.810056741839,1671625086.016,527,125625,72763
55417,9856.817588625523,1671625086.016,527,125625,72763
55418,9856.825120509207,1671625086.016,528,125556,72795
55418,9856.832652392892,1671625086.016,528,125556,72795
55419,9856.840184276576,1671625086.016,527,125620,72783
55419,9856.84771616026,1671625086.016,527,125620,72783
55420,9856.855248043945,1671625086.016,526,125566,72774
55420,9856.86277992763,1671625086.016,526,125566,72774
55421,9856.870311811314,1671625086.016,526,125668,72770
55421,9856.877843694998,1671625086.016,526,125668,72770
55422,9856.885375578682,1671625086.114,528,125637,72753
55422,9856.892907462367,1671625086.114,528,125637,72753
55423,9856.900439346051,1671625086.114,527,125606,72754
55423,9856.907971229735,1671625086.114,527,125606,72754
55424,9856.924927747075,1671625086.114,527,125629,72792
55424,9856.932478900279,1671625086.114,527,125629,72792
55425,9856.940030053482,1671625086.114,527,125713,72794
55425,9856.947581206685,1671625086.114,527,125713,72794
55426,9856.955132359888,1671625086.114,527,125683,72799
55426,9856.962683513091,1671625086.114,527,125683,72799
55427,9856.970234666294,1671625086.114,525,125682,72812
55427,9856.977785819498,1671625086.114,525,125682,72812
55428,9856.9853369727,1671625086.212,527,125654,72793
55428,9856.992888125904,1671625086.212,527,125654,72793
55429,9857.000439279107,1671625086.212,526,125740,72793
55429,9857.00799043231,1671625086.212,526,125740,72793
55430,9857.015541585513,1671625086.212,527,125709,72820
55430,9857.023092738717,1671625086.212,527,125709,72820
55431,9857.03064389192,1671625086.212,528,125834,72834
55431,9857.038195045123,1671625086.212,528,125834,72834
55432,9857.045746198326,1671625086.212,527,125803,72831
55432,9857.05329735153,1671625086.212,527,125803,72831
55433,9857.060848504732,1671625086.212,529,125884,72818
55433,9857.068399657936,1671625086.212,529,125884,72818
55434,9857.08777088694,1671625086.295,527,125799,72850
55434,9857.095418068584,1671625086.295,527,125799,72850
55435,9857.103065250229,1671625086.295,527,125830,72857
55435,9857.110712431873,1671625086.295,527,125830,72857
55436,9857.118359613518,1671625086.295,526,125832,72862
55436,9857.126006795163,1671625086.295,526,125832,72862
55437,9857.133653976807,1671625086.295,526,125860,72848
55437,9857.141301158452,1671625086.295,526,125860,72848
55438,9857.148948340096,1671625086.295,527,125851,72866
55438,9857.156595521741,1671625086.295,527,125851,72866
55439,9857.164242703386,1671625086.295,528,125906,72882
55439,9857.17188988503,1671625086.295,528,125906,72882
55440,9857.179537066675,1671625086.397,528,125895,72889
55440,9857.18718424832,1671625086.397,528,125895,72889
55441,9857.194831429964,1671625086.397,528,125915,72912
55441,9857.202478611609,1671625086.397,528,125915,72912
55442,9857.210125793254,1671625086.397,527,125957,72925
55442,9857.217772974898,1671625086.397,527,125957,72925
55443,9857.225420156543,1671625086.397,526,126024,72924
55443,9857.233067338188,1671625086.397,526,126024,72924
55444,9857.239198048203,1671625086.397,526,125960,72921
55444,9857.247021626,1671625086.397,526,125960,72921
55445,9857.254845203799,1671625086.397,526,126010,72937
55445,9857.262668781597,1671625086.397,526,126010,72937
55446,9857.270492359396,1671625086.488,528,126018,72944
55446,9857.278315937194,1671625086.488,528,126018,72944
55447,9857.286139514992,1671625086.488,526,126017,72932
55447,9857.29396309279,1671625086.488,526,126017,72932
55448,9857.301786670589,1671625086.488,527,126029,72938
55448,9857.309610248387,1671625086.488,527,126029,72938
55449,9857.317433826185,1671625086.488,528,125974,72928
55449,9857.325257403983,1671625086.488,528,125974,72928
55450,9857.333080981782,1671625086.488,528,125993,72917
55450,9857.34090455958,1671625086.488,528,125993,72917
55451,9857.348728137378,1671625086.488,525,125997,72933
55451,9857.356551715176,1671625086.488,525,125997,72933
55452,9857.364375292975,1671625086.572,526,125990,72934
55452,9857.372198870773,1671625086.572,526,125990,72934
55453,9857.380022448571,1671625086.572,526,125954,72929
55453,9857.38784602637,1671625086.572,526,125954,72929
55454,9857.390943126391,1671625086.572,527,125911,72938
55454,9857.397663949698,1671625086.572,527,125911,72938
55455,9857.404384773004,1671625086.572,526,125922,72921
55455,9857.411105596311,1671625086.572,526,125922,72921
55456,9857.417826419618,1671625086.572,527,125932,72912
55456,9857.424547242925,1671625086.572,527,125932,72912
55457,9857.431268066231,1671625086.572,528,125868,72916
55457,9857.437988889538,1671625086.572,528,125868,72916
55458,9857.444709712845,1671625086.687,528,125812,72898
55458,9857.451430536152,1671625086.687,528,125812,72898
55459,9857.458151359458,1671625086.687,527,125846,72920
55459,9857.464872182765,1671625086.687,527,125846,72920
55460,9857.471593006072,1671625086.687,526,125915,72896
55460,9857.478313829379,1671625086.687,526,125915,72896
55461,9857.485034652685,1671625086.687,526,125864,72873
55461,9857.491755475992,1671625086.687,526,125864,72873
55462,9857.498476299299,1671625086.687,526,125796,72890
55462,9857.505197122606,1671625086.687,526,125796,72890
55463,9857.511917945913,1671625086.687,527,125837,72879
55463,9857.51863876922,1671625086.687,527,125837,72879
55464,9857.564417719783,1671625086.768,527,125869,72882
55464,9857.57336653802,1671625086.768,527,125869,72882
55465,9857.582315356256,1671625086.768,527,125794,72898
55465,9857.591264174493,1671625086.768,527,125794,72898
55466,9857.60021299273,1671625086.768,527,125810,72875
55466,9857.609161810966,1671625086.768,527,125810,72875
55467,9857.618110629202,1671625086.768,526,125850,72894
55467,9857.627059447439,1671625086.768,526,125850,72894
55468,9857.636008265676,1671625086.768,527,125841,72883
55468,9857.644957083912,1671625086.768,527,125841,72883
55469,9857.653905902149,1671625086.768,525,125745,72892
55469,9857.662854720385,1671625086.768,525,125745,72892
55470,9857.671803538622,1671625086.86,525,125863,72894
55470,9857.680752356859,1671625086.86,525,125863,72894
55471,9857.689701175095,1671625086.86,527,125804,72893
55471,9857.698649993332,1671625086.86,527,125804,72893
55472,9857.707598811568,1671625086.86,527,125733,72898
55472,9857.716547629805,1671625086.86,527,125733,72898
55473,9857.725496448042,1671625086.86,526,125850,72891
55473,9857.734445266278,1671625086.86,526,125850,72891
55474,9857.704951326416,1671625086.86,526,125815,72900
55474,9857.712062726085,1671625086.86,526,125815,72900
55475,9857.719174125754,1671625086.86,525,125875,72901
55475,9857.726285525423,1671625086.86,525,125875,72901
55476,9857.733396925092,1671625086.955,525,125910,72934
55476,9857.740508324761,1671625086.955,525,125910,72934
55477,9857.74761972443,1671625086.955,525,125894,72934
55477,9857.7547311241,1671625086.955,525,125894,72934
55478,9857.761842523769,1671625086.955,527,125933,72926
55478,9857.768953923438,1671625086.955,527,125933,72926
55479,9857.776065323107,1671625086.955,527,125935,72911
55479,9857.783176722776,1671625086.955,527,125935,72911
55480,9857.790288122445,1671625086.955,528,126012,72955
55480,9857.797399522115,1671625086.955,528,126012,72955
55481,9857.804510921784,1671625086.955,527,125979,72947
55481,9857.811622321453,1671625086.955,527,125979,72947
55482,9857.818733721122,1671625087.043,528,126040,72965
55482,9857.825845120791,1671625087.043,528,126040,72965
55483,9857.83295652046,1671625087.043,525,126050,72980
55483,9857.84006792013,1671625087.043,525,126050,72980
55484,9857.859739585017,1671625087.043,526,126080,73006
55484,9857.866780189746,1671625087.043,526,126080,73006
55485,9857.873820794475,1671625087.043,526,126062,72982
55485,9857.880861399204,1671625087.043,526,126062,72982
55486,9857.887902003933,1671625087.043,526,126094,73011
55486,9857.894942608662,1671625087.043,526,126094,73011
55487,9857.90198321339,1671625087.043,526,126130,73022
55487,9857.90902381812,1671625087.043,526,126130,73022
55488,9857.916064422849,1671625087.143,527,126148,73021
55488,9857.923105027578,1671625087.143,527,126148,73021
55489,9857.930145632306,1671625087.143,526,126200,73036
55489,9857.937186237035,1671625087.143,526,126200,73036
55490,9857.944226841764,1671625087.143,526,126154,73037
55490,9857.951267446493,1671625087.143,526,126154,73037
55491,9857.958308051222,1671625087.143,524,126250,73047
55491,9857.965348655951,1671625087.143,524,126250,73047
55492,9857.97238926068,1671625087.143,523,126224,73068
55492,9857.979429865409,1671625087.143,523,126224,73068
55493,9857.986470470138,1671625087.143,524,126205,73066
55493,9857.993511074867,1671625087.143,524,126205,73066
55494,9858.019637940064,1671625087.234,525,126304,73086
55494,9858.027458229473,1671625087.234,525,126304,73086
55495,9858.035278518882,1671625087.234,525,126296,73093
55495,9858.043098808292,1671625087.234,525,126296,73093
55496,9858.0509190977,1671625087.234,526,126350,73085
55496,9858.05873938711,1671625087.234,526,126350,73085
55497,9858.06655967652,1671625087.234,526,126242,73094
55497,9858.074379965929,1671625087.234,526,126242,73094
55498,9858.082200255338,1671625087.234,525,126334,73098
55498,9858.090020544747,1671625087.234,525,126334,73098
55499,9858.097840834156,1671625087.234,525,126274,73093
55499,9858.105661123565,1671625087.234,525,126274,73093
55500,9858.113481412975,1671625087.327,524,126298,73097
55500,9858.121301702384,1671625087.327,524,126298,73097
55501,9858.129121991793,1671625087.327,525,126304,73094
55501,9858.136942281202,1671625087.327,525,126304,73094
55502,9858.144762570611,1671625087.327,524,126243,73086
55502,9858.15258286002,1671625087.327,524,126243,73086
55503,9858.16040314943,1671625087.327,526,126257,73076
55503,9858.168223438839,1671625087.327,526,126257,73076
55504,9858.171822924358,1671625087.327,526,126172,73043
55504,9858.17913323707,1671625087.327,526,126172,73043
55505,9858.186443549783,1671625087.327,525,126168,73062
55505,9858.193753862495,1671625087.327,525,126168,73062
55506,9858.201064175208,1671625087.418,526,126161,73063
55506,9858.20837448792,1671625087.418,526,126161,73063
55507,9858.215684800633,1671625087.418,525,126145,73058
55507,9858.222995113345,1671625087.418,525,126145,73058
55508,9858.230305426057,1671625087.418,524,126140,73059
55508,9858.23761573877,1671625087.418,524,126140,73059
55509,9858.244926051482,1671625087.418,525,126132,73045
55509,9858.252236364195,1671625087.418,525,126132,73045
55510,9858.259546676907,1671625087.418,524,126108,73047
55510,9858.26685698962,1671625087.418,524,126108,73047
55511,9858.274167302332,1671625087.418,525,126160,73056
55511,9858.281477615044,1671625087.418,525,126160,73056
55512,9858.288787927757,1671625087.517,526,126209,73062
55512,9858.29609824047,1671625087.517,526,126209,73062
55513,9858.303408553182,1671625087.517,526,126147,73055
55513,9858.310718865894,1671625087.517,526,126147,73055
55514,9858.327263972044,1671625087.517,525,126226,73044
55514,9858.334825980062,1671625087.517,525,126226,73044
55515,9858.342387988081,1671625087.517,523,126235,73060
55515,9858.3499499961,1671625087.517,523,126235,73060
55516,9858.357512004119,1671625087.517,524,126234,73082
55516,9858.365074012137,1671625087.517,524,126234,73082
55517,9858.372636020156,1671625087.517,525,126297,73083
55517,9858.380198028175,1671625087.517,525,126297,73083
55518,9858.387760036194,1671625087.609,524,126319,73077
55518,9858.395322044213,1671625087.609,524,126319,73077
55519,9858.402884052231,1671625087.609,526,126290,73090
55519,9858.41044606025,1671625087.609,526,126290,73090
55520,9858.418008068269,1671625087.609,526,126343,73090
55520,9858.425570076288,1671625087.609,526,126343,73090
55521,9858.433132084307,1671625087.609,527,126317,73080
55521,9858.440694092325,1671625087.609,527,126317,73080
55522,9858.448256100344,1671625087.609,525,126349,73100
55522,9858.455818108363,1671625087.609,525,126349,73100
55523,9858.463380116382,1671625087.609,526,126273,73100
55523,9858.4709421244,1671625087.609,526,126273,73100
55524,9858.484518227844,1671625087.711,526,126314,73098
55524,9858.491670958581,1671625087.711,526,126314,73098
55525,9858.498823689319,1671625087.711,525,126286,73072
55525,9858.505976420056,1671625087.711,525,126286,73072
55526,9858.513129150793,1671625087.711,528,126349,73122
55526,9858.52028188153,1671625087.711,528,126349,73122
55527,9858.527434612268,1671625087.711,528,126260,73095
55527,9858.534587343005,1671625087.711,528,126260,73095
55528,9858.541740073742,1671625087.711,527,126352,73115
55528,9858.54889280448,1671625087.711,527,126352,73115
55529,9858.556045535217,1671625087.711,527,126286,73094
55529,9858.563198265954,1671625087.711,527,126286,73094
55530,9858.570350996692,1671625087.793,528,126348,73104
55530,9858.577503727429,1671625087.793,528,126348,73104
55531,9858.584656458166,1671625087.793,527,126367,73123
55531,9858.591809188903,1671625087.793,527,126367,73123
55532,9858.59896191964,1671625087.793,526,126396,73115
55532,9858.606114650378,1671625087.793,526,126396,73115
55533,9858.613267381115,1671625087.793,526,126433,73106
55533,9858.620420111853,1671625087.793,526,126433,73106
55534,9858.640155899046,1671625087.793,527,126360,73114
55534,9858.646624122895,1671625087.793,527,126360,73114
55535,9858.653092346745,1671625087.793,528,126394,73120
55535,9858.659560570595,1671625087.793,528,126394,73120
55536,9858.666028794445,1671625087.898,527,126483,73112
55536,9858.672497018295,1671625087.898,527,126483,73112
55537,9858.678965242145,1671625087.898,527,126469,73137
55537,9858.685433465995,1671625087.898,527,126469,73137
55538,9858.691901689845,1671625087.898,527,126497,73126
55538,9858.698369913694,1671625087.898,527,126497,73126
55539,9858.704838137544,1671625087.898,528,126545,73143
55539,9858.711306361394,1671625087.898,528,126545,73143
55540,9858.717774585244,1671625087.898,527,126541,73163
55540,9858.724242809094,1671625087.898,527,126541,73163
55541,9858.730711032944,1671625087.898,527,126581,73172
55541,9858.737179256794,1671625087.898,527,126581,73172
55542,9858.743647480644,1671625087.983,527,126536,73156
55542,9858.750115704494,1671625087.983,527,126536,73156
55543,9858.756583928343,1671625087.983,528,126556,73160
55543,9858.763052152193,1671625087.983,528,126556,73160
55544,9858.802039820335,1671625087.983,528,126646,73180
55544,9858.80916540957,1671625087.983,528,126646,73180
55545,9858.816290998804,1671625087.983,528,126654,73189
55545,9858.823416588039,1671625087.983,528,126654,73189
55546,9858.830542177273,1671625087.983,527,126657,73194
55546,9858.837667766507,1671625087.983,527,126657,73194
55547,9858.844793355742,1671625087.983,528,126699,73207
55547,9858.851918944976,1671625087.983,528,126699,73207
55548,9858.85904453421,1671625088.074,527,126656,73181
55548,9858.866170123445,1671625088.074,527,126656,73181
55549,9858.87329571268,1671625088.074,529,126586,73142
55549,9858.880421301914,1671625088.074,529,126586,73142
55550,9858.887546891148,1671625088.074,528,126621,73161
55550,9858.894672480383,1671625088.074,528,126621,73161
55551,9858.901798069617,1671625088.074,530,126544,73137
55551,9858.908923658852,1671625088.074,530,126544,73137
55552,9858.916049248086,1671625088.074,529,126518,73131
55552,9858.92317483732,1671625088.074,529,126518,73131
55553,9858.930300426555,1671625088.074,528,126502,73098
55553,9858.93742601579,1671625088.074,528,126502,73098
55554,9858.949351401636,1671625088.167,527,126392,73106
55554,9858.956435166265,1671625088.167,527,126392,73106
55555,9858.963518930894,1671625088.167,527,126361,73107
55555,9858.970602695523,1671625088.167,527,126361,73107
55556,9858.977686460152,1671625088.167,526,126360,73104
55556,9858.98477022478,1671625088.167,526,126360,73104
55557,9858.99185398941,1671625088.167,527,126332,73091
55557,9858.998937754039,1671625088.167,527,126332,73091
55558,9859.006021518668,1671625088.167,527,126367,73082
55558,9859.013105283297,1671625088.167,527,126367,73082
55559,9859.020189047926,1671625088.167,528,126371,73094
55559,9859.027272812555,1671625088.167,528,126371,73094
55560,9859.034356577184,1671625088.288,528,126446,73107
55560,9859.041440341813,1671625088.288,528,126446,73107
55561,9859.048524106442,1671625088.288,528,126371,73098
55561,9859.05560787107,1671625088.288,528,126371,73098
55562,9859.0626916357,1671625088.288,527,126435,73107
55562,9859.069775400329,1671625088.288,527,126435,73107
55563,9859.076859164958,1671625088.288,526,126472,73125
55563,9859.083942929587,1671625088.288,526,126472,73125
55564,9859.12614330888,1671625088.288,527,126430,73111
55564,9859.135446270047,1671625088.288,527,126430,73111
55565,9859.144749231215,1671625088.288,528,126405,73104
55565,9859.154052192382,1671625088.288,528,126405,73104
55566,9859.163355153549,1671625088.372,526,126406,73112
55566,9859.172658114716,1671625088.372,526,126406,73112
55567,9859.181961075883,1671625088.372,527,126524,73113
55567,9859.19126403705,1671625088.372,527,126524,73113
55568,9859.200566998217,1671625088.372,528,126491,73115
55568,9859.209869959384,1671625088.372,528,126491,73115
55569,9859.219172920552,1671625088.372,527,126479,73113
55569,9859.228475881719,1671625088.372,527,126479,73113
55570,9859.237778842886,1671625088.372,526,126431,73137
55570,9859.247081804053,1671625088.372,526,126431,73137
55571,9859.25638476522,1671625088.372,527,126488,73123
55571,9859.265687726387,1671625088.372,527,126488,73123
55572,9859.274990687554,1671625088.445,526,126532,73118
55572,9859.284293648721,1671625088.445,526,126532,73118
55573,9859.293596609888,1671625088.445,526,126511,73126
55573,9859.302899571056,1671625088.445,526,126511,73126
55574,9859.27074282595,1671625088.445,528,126522,73136
55574,9859.276675024665,1671625088.445,528,126522,73136
55575,9859.28260722338,1671625088.445,529,126590,73125
55575,9859.288539422096,1671625088.445,529,126590,73125
55576,9859.294471620811,1671625088.445,528,126629,73129
55576,9859.300403819527,1671625088.445,528,126629,73129
55577,9859.306336018242,1671625088.445,526,126673,73134
55577,9859.312268216958,1671625088.445,526,126673,73134
55578,9859.318200415673,1671625088.539,526,126640,73144
55578,9859.324132614389,1671625088.539,526,126640,73144
55579,9859.330064813104,1671625088.539,527,126628,73135
55579,9859.33599701182,1671625088.539,527,126628,73135
55580,9859.341929210535,1671625088.539,526,126667,73137
55580,9859.347861409251,1671625088.539,526,126667,73137
55581,9859.353793607967,1671625088.539,526,126666,73130
55581,9859.359725806682,1671625088.539,526,126666,73130
55582,9859.365658005398,1671625088.539,527,126605,73127
55582,9859.371590204113,1671625088.539,527,126605,73127
55583,9859.377522402829,1671625088.539,528,126638,73116
55583,9859.383454601544,1671625088.539,528,126638,73116
55584,9859.41527211418,1671625088.644,526,126610,73113
55584,9859.422648325175,1671625088.644,526,126610,73113
55585,9859.43002453617,1671625088.644,527,126616,73120
55585,9859.437400747165,1671625088.644,527,126616,73120
55586,9859.44477695816,1671625088.644,526,126655,73108
55586,9859.452153169155,1671625088.644,526,126655,73108
55587,9859.45952938015,1671625088.644,526,126613,73105
55587,9859.466905591145,1671625088.644,526,126613,73105
55588,9859.47428180214,1671625088.644,526,126702,73101
55588,9859.481658013136,1671625088.644,526,126702,73101
55589,9859.48903422413,1671625088.644,527,126639,73110
55589,9859.496410435126,1671625088.644,527,126639,73110
55590,9859.50378664612,1671625088.728,529,126629,73134
55590,9859.511162857116,1671625088.728,529,126629,73134
55591,9859.51853906811,1671625088.728,528,126677,73144
55591,9859.525915279106,1671625088.728,528,126677,73144
55592,9859.533291490101,1671625088.728,528,126739,73136
55592,9859.540667701096,1671625088.728,528,126739,73136
55593,9859.548043912091,1671625088.728,527,126704,73147
55593,9859.555420123086,1671625088.728,527,126704,73147
55594,9859.575248450377,1671625088.728,528,126749,73164
55594,9859.581916831812,1671625088.728,528,126749,73164
55595,9859.588585213247,1671625088.728,527,126719,73162
55595,9859.595253594682,1671625088.728,527,126719,73162
55596,9859.601921976117,1671625088.823,525,126744,73153
55596,9859.608590357551,1671625088.823,525,126744,73153
55597,9859.615258738986,1671625088.823,528,126734,73169
55597,9859.62192712042,1671625088.823,528,126734,73169
55598,9859.628595501856,1671625088.823,527,126751,73152
55598,9859.63526388329,1671625088.823,527,126751,73152
55599,9859.641932264725,1671625088.823,528,126721,73145
55599,9859.64860064616,1671625088.823,528,126721,73145
55600,9859.655269027595,1671625088.823,526,126689,73145
55600,9859.66193740903,1671625088.823,526,126689,73145
55601,9859.668605790464,1671625088.823,529,126713,73105
55601,9859.6752741719,1671625088.823,529,126713,73105
55602,9859.681942553334,1671625088.948,525,126634,73106
55602,9859.688610934769,1671625088.948,525,126634,73106
55603,9859.695279316204,1671625088.948,525,126674,73112
55603,9859.701947697638,1671625088.948,525,126674,73112
55604,9859.742140896793,1671625088.948,526,126573,73094
55604,9859.75120446691,1671625088.948,526,126573,73094
55605,9859.760268037026,1671625088.948,526,126621,73088
55605,9859.769331607142,1671625088.948,526,126621,73088
55606,9859.778395177258,1671625088.948,526,126608,73081
55606,9859.787458747374,1671625088.948,526,126608,73081
55607,9859.79652231749,1671625088.948,527,126528,73085
55607,9859.805585887607,1671625088.948,527,126528,73085
55608,9859.814649457723,1671625089.016,528,126574,73072
55608,9859.82371302784,1671625089.016,528,126574,73072
55609,9859.832776597956,1671625089.016,527,126588,73083
55609,9859.841840168072,1671625089.016,527,126588,73083
55610,9859.850903738188,1671625089.016,526,126569,73097
55610,9859.859967308304,1671625089.016,526,126569,73097
55611,9859.86903087842,1671625089.016,525,126674,73098
55611,9859.878094448537,1671625089.016,525,126674,73098
55612,9859.887158018653,1671625089.016,525,126568,73084
55612,9859.89622158877,1671625089.016,525,126568,73084
55613,9859.905285158886,1671625089.016,526,126645,73086
55613,9859.914348729002,1671625089.016,526,126645,73086
55614,9859.88958224343,1671625089.112,526,126548,73072
55614,9859.894969515917,1671625089.112,526,126548,73072
55615,9859.900356788405,1671625089.112,527,126669,73098
55615,9859.905744060892,1671625089.112,527,126669,73098
55616,9859.91113133338,1671625089.112,527,126545,73067
55616,9859.916518605867,1671625089.112,527,126545,73067
55617,9859.921905878355,1671625089.112,526,126546,73078
55617,9859.927293150842,1671625089.112,526,126546,73078
55618,9859.93268042333,1671625089.112,526,126568,73077
55618,9859.938067695817,1671625089.112,526,126568,73077
55619,9859.943454968305,1671625089.112,525,126527,73094
55619,9859.948842240792,1671625089.112,525,126527,73094
55620,9859.95422951328,1671625089.196,527,126574,73058
55620,9859.959616785767,1671625089.196,527,126574,73058
55621,9859.965004058255,1671625089.196,525,126582,73085
55621,9859.970391330742,1671625089.196,525,126582,73085
55622,9859.97577860323,1671625089.196,526,126567,73093
55622,9859.981165875717,1671625089.196,526,126567,73093
55623,9859.986553148205,1671625089.196,526,126529,73082
55623,9859.991940420692,1671625089.196,526,126529,73082
55624,9860.042746137697,1671625089.196,526,126651,73102
55624,9860.04932843888,1671625089.196,526,126651,73102
55625,9860.055910740062,1671625089.196,527,126652,73099
55625,9860.062493041245,1671625089.196,527,126652,73099
55626,9860.069075342428,1671625089.292,524,126646,73095
55626,9860.07565764361,1671625089.292,524,126646,73095
55627,9860.082239944793,1671625089.292,528,126653,73123
55627,9860.088822245976,1671625089.292,528,126653,73123
55628,9860.095404547159,1671625089.292,526,126649,73095
55628,9860.101986848342,1671625089.292,526,126649,73095
55629,9860.108569149525,1671625089.292,526,126736,73127
55629,9860.115151450707,1671625089.292,526,126736,73127
55630,9860.12173375189,1671625089.292,525,126683,73145
55630,9860.128316053073,1671625089.292,525,126683,73145
55631,9860.134898354256,1671625089.292,527,126685,73131
55631,9860.141480655438,1671625089.292,527,126685,73131
55632,9860.148062956621,1671625089.393,525,126763,73132
55632,9860.154645257804,1671625089.393,525,126763,73132
55633,9860.161227558987,1671625089.393,525,126678,73117
55633,9860.16780986017,1671625089.393,525,126678,73117
55634,9860.202104207003,1671625089.393,524,126719,73121
55634,9860.209866432997,1671625089.393,524,126719,73121
55635,9860.217628658991,1671625089.393,526,126701,73144
55635,9860.225390884985,1671625089.393,526,126701,73144
55636,9860.23315311098,1671625089.393,526,126765,73143
55636,9860.240915336974,1671625089.393,526,126765,73143
55637,9860.248677562968,1671625089.393,527,126786,73122
55637,9860.256439788962,1671625089.393,527,126786,73122
55638,9860.264202014956,1671625089.484,527,126790,73135
55638,9860.27196424095,1671625089.484,527,126790,73135
55639,9860.279726466944,1671625089.484,526,126771,73139
55639,9860.287488692938,1671625089.484,526,126771,73139
55640,9860.295250918933,1671625089.484,526,126762,73157
55640,9860.303013144927,1671625089.484,526,126762,73157
55641,9860.310775370921,1671625089.484,526,126755,73132
55641,9860.318537596915,1671625089.484,526,126755,73132
55642,9860.32629982291,1671625089.484,527,126789,73150
55642,9860.334062048903,1671625089.484,527,126789,73150
55643,9860.341824274898,1671625089.484,525,126808,73133
55643,9860.349586500892,1671625089.484,525,126808,73133
55644,9860.359973825778,1671625089.569,526,126785,73137
55644,9860.367133350515,1671625089.569,526,126785,73137
55645,9860.374292875253,1671625089.569,526,126775,73152
55645,9860.38145239999,1671625089.569,526,126775,73152
55646,9860.388611924727,1671625089.569,527,126792,73144
55646,9860.395771449465,1671625089.569,527,126792,73144
55647,9860.402930974202,1671625089.569,527,126782,73132
55647,9860.41009049894,1671625089.569,527,126782,73132
55648,9860.417250023676,1671625089.569,526,126730,73131
55648,9860.424409548414,1671625089.569,526,126730,73131
55649,9860.431569073151,1671625089.569,528,126835,73153
55649,9860.438728597888,1671625089.569,528,126835,73153
55650,9860.445888122626,1671625089.667,526,126773,73151
55650,9860.453047647363,1671625089.667,526,126773,73151
55651,9860.4602071721,1671625089.667,526,126717,73133
55651,9860.467366696837,1671625089.667,526,126717,73133
55652,9860.474526221575,1671625089.667,526,126669,73112
55652,9860.481685746312,1671625089.667,526,126669,73112
55653,9860.48884527105,1671625089.667,526,126693,73110
55653,9860.496004795787,1671625089.667,526,126693,73110
55654,9860.510613631277,1671625089.667,526,126655,73090
55654,9860.51822976708,1671625089.667,526,126655,73090
55655,9860.525845902883,1671625089.667,526,126670,73128
55655,9860.533462038686,1671625089.667,526,126670,73128
55656,9860.541078174489,1671625089.767,527,126646,73117
55656,9860.548694310291,1671625089.767,527,126646,73117
55657,9860.556310446094,1671625089.767,526,126718,73114
55657,9860.563926581897,1671625089.767,526,126718,73114
55658,9860.5715427177,1671625089.767,525,126727,73121
55658,9860.579158853503,1671625089.767,525,126727,73121
55659,9860.586774989306,1671625089.767,526,126673,73145
55659,9860.594391125109,1671625089.767,526,126673,73145
55660,9860.602007260912,1671625089.767,525,126717,73147
55660,9860.609623396715,1671625089.767,525,126717,73147
55661,9860.617239532517,1671625089.767,526,126687,73146
55661,9860.62485566832,1671625089.767,526,126687,73146
55662,9860.632471804123,1671625089.856,525,126804,73151
55662,9860.640087939926,1671625089.856,525,126804,73151
55663,9860.647704075729,1671625089.856,526,126814,73177
55663,9860.655320211532,1671625089.856,526,126814,73177
55664,9860.672747140618,1671625089.856,526,126844,73178
55664,9860.679947029697,1671625089.856,526,126844,73178
55665,9860.687146918777,1671625089.856,525,126816,73168
55665,9860.694346807857,1671625089.856,525,126816,73168
55666,9860.701546696937,1671625089.856,525,126786,73168
55666,9860.708746586017,1671625089.856,525,126786,73168
55667,9860.715946475097,1671625089.856,525,126802,73148
55667,9860.723146364177,1671625089.856,525,126802,73148
55668,9860.730346253256,1671625089.951,526,126804,73157
55668,9860.737546142336,1671625089.951,526,126804,73157
55669,9860.744746031416,1671625089.951,525,126829,73133
55669,9860.751945920496,1671625089.951,525,126829,73133
55670,9860.759145809576,1671625089.951,526,126771,73136
55670,9860.766345698656,1671625089.951,526,126771,73136
55671,9860.773545587735,1671625089.951,525,126792,73132
55671,9860.780745476815,1671625089.951,525,126792,73132
55672,9860.787945365895,1671625089.951,526,126794,73140
55672,9860.795145254975,1671625089.951,526,126794,73140
55673,9860.802345144055,1671625089.951,526,126720,73147
55673,9860.809545033135,1671625089.951,526,126720,73147
55674,9860.826539124217,1671625090.043,525,126767,73130
55674,9860.833917754135,1671625090.043,525,126767,73130
55675,9860.841296384053,1671625090.043,525,126750,73141
55675,9860.848675013971,1671625090.043,525,126750,73141
55676,9860.856053643889,1671625090.043,526,126740,73111
55676,9860.863432273807,1671625090.043,526,126740,73111
55677,9860.870810903725,1671625090.043,526,126765,73123
55677,9860.878189533643,1671625090.043,526,126765,73123
55678,9860.885568163561,1671625090.043,526,126730,73142
55678,9860.89294679348,1671625090.043,526,126730,73142
55679,9860.900325423398,1671625090.043,527,126718,73119
55679,9860.907704053316,1671625090.043,527,126718,73119
55680,9860.915082683234,1671625090.135,527,126711,73120
55680,9860.922461313152,1671625090.135,527,126711,73120
55681,9860.92983994307,1671625090.135,527,126749,73098
55681,9860.937218572988,1671625090.135,527,126749,73098
55682,9860.944597202906,1671625090.135,526,126723,73124
55682,9860.951975832824,1671625090.135,526,126723,73124
55683,9860.959354462742,1671625090.135,525,126790,73112
55683,9860.96673309266,1671625090.135,525,126790,73112
55684,9860.979863927283,1671625090.135,524,126737,73125
55684,9860.987080087238,1671625090.135,524,126737,73125
55685,9860.994296247192,1671625090.135,527,126809,73134
55685,9861.001512407147,1671625090.135,527,126809,73134
55686,9861.008728567102,1671625090.232,527,126843,73153
55686,9861.015944727056,1671625090.232,527,126843,73153
55687,9861.02316088701,1671625090.232,527,126831,73155
55687,9861.030377046965,1671625090.232,527,126831,73155
55688,9861.03759320692,1671625090.232,527,126811,73175
55688,9861.044809366875,1671625090.232,527,126811,73175
55689,9861.05202552683,1671625090.232,526,126871,73169
55689,9861.059241686784,1671625090.232,526,126871,73169
55690,9861.066457846739,1671625090.232,526,126946,73169
55690,9861.073674006693,1671625090.232,526,126946,73169
55691,9861.080890166648,1671625090.232,526,126998,73190
55691,9861.088106326602,1671625090.232,526,126998,73190
55692,9861.095322486557,1671625090.323,525,126902,73183
55692,9861.102538646512,1671625090.323,525,126902,73183
55693,9861.109754806466,1671625090.323,525,126988,73212
55693,9861.116970966421,1671625090.323,525,126988,73212
55694,9861.138080061235,1671625090.323,527,126947,73197
55694,9861.145321705344,1671625090.323,527,126947,73197
55695,9861.152563349453,1671625090.323,526,127019,73200
55695,9861.159804993562,1671625090.323,526,127019,73200
55696,9861.16704663767,1671625090.323,528,126964,73198
55696,9861.17428828178,1671625090.323,528,126964,73198
55697,9861.181529925889,1671625090.323,524,126975,73186
55697,9861.188771569998,1671625090.323,524,126975,73186
55698,9861.196013214107,1671625090.414,525,126923,73177
55698,9861.203254858216,1671625090.414,525,126923,73177
55699,9861.210496502325,1671625090.414,526,126983,73179
55699,9861.217738146433,1671625090.414,526,126983,73179
55700,9861.224979790542,1671625090.414,525,126895,73181
55700,9861.232221434651,1671625090.414,525,126895,73181
55701,9861.23946307876,1671625090.414,527,126816,73149
55701,9861.24670472287,1671625090.414,527,126816,73149
55702,9861.253946366978,1671625090.414,527,126797,73115
55702,9861.261188011087,1671625090.414,527,126797,73115
55703,9861.268429655196,1671625090.414,526,126707,73087
55703,9861.275671299305,1671625090.414,526,126707,73087
55704,9861.289732249415,1671625090.515,527,126659,73061
55704,9861.296863811325,1671625090.515,527,126659,73061
55705,9861.303995373235,1671625090.515,524,126650,73068
55705,9861.311126935145,1671625090.515,524,126650,73068
55706,9861.318258497055,1671625090.515,526,126650,73038
55706,9861.325390058964,1671625090.515,526,126650,73038
55707,9861.332521620874,1671625090.515,523,126602,73020
55707,9861.339653182784,1671625090.515,523,126602,73020
55708,9861.346784744694,1671625090.515,527,126604,73046
55708,9861.353916306603,1671625090.515,527,126604,73046
55709,9861.361047868513,1671625090.515,525,126605,73061
55709,9861.368179430423,1671625090.515,525,126605,73061
55710,9861.375310992333,1671625090.609,528,126686,73067
55710,9861.382442554243,1671625090.609,528,126686,73067
55711,9861.389574116152,1671625090.609,526,126624,73084
55711,9861.396705678062,1671625090.609,526,126624,73084
55712,9861.403837239972,1671625090.609,526,126652,73101
55712,9861.410968801882,1671625090.609,526,126652,73101
55713,9861.418100363791,1671625090.609,525,126757,73127
55713,9861.425231925701,1671625090.609,525,126757,73127
55714,9861.453291459135,1671625090.609,524,126699,73126
55714,9861.460621775495,1671625090.609,524,126699,73126
55715,9861.467952091856,1671625090.609,525,126816,73147
55715,9861.475282408217,1671625090.609,525,126816,73147
55716,9861.482612724578,1671625090.697,523,126767,73154
55716,9861.489943040939,1671625090.697,523,126767,73154
55717,9861.4972733573,1671625090.697,524,126812,73173
55717,9861.50460367366,1671625090.697,524,126812,73173
55718,9861.511933990021,1671625090.697,524,126825,73150
55718,9861.519264306382,1671625090.697,524,126825,73150
55719,9861.526594622743,1671625090.697,525,126915,73163
55719,9861.533924939104,1671625090.697,525,126915,73163
55720,9861.541255255464,1671625090.697,525,126846,73166
55720,9861.548585571825,1671625090.697,525,126846,73166
55721,9861.555915888186,1671625090.697,524,126823,73174
55721,9861.563246204547,1671625090.697,524,126823,73174
55722,9861.570576520908,1671625090.79,524,126838,73186
55722,9861.577906837269,1671625090.79,524,126838,73186
55723,9861.58523715363,1671625090.79,524,126844,73167
55723,9861.59256746999,1671625090.79,524,126844,73167
55724,9861.60345381751,1671625090.79,524,126772,73175
55724,9861.6106212675,1671625090.79,524,126772,73175
55725,9861.61778871749,1671625090.79,525,126764,73150
55725,9861.624956167481,1671625090.79,525,126764,73150
55726,9861.632123617472,1671625090.79,525,126811,73148
55726,9861.639291067462,1671625090.79,525,126811,73148
55727,9861.646458517453,1671625090.79,525,126787,73166
55727,9861.653625967443,1671625090.79,525,126787,73166
55728,9861.660793417434,1671625090.89,526,126758,73158
55728,9861.667960867424,1671625090.89,526,126758,73158
55729,9861.675128317414,1671625090.89,522,126755,73133
55729,9861.682295767405,1671625090.89,522,126755,73133
55730,9861.689463217395,1671625090.89,524,126776,73156
55730,9861.696630667386,1671625090.89,524,126776,73156
55731,9861.703798117376,1671625090.89,524,126752,73135
55731,9861.710965567367,1671625090.89,524,126752,73135
55732,9861.718133017357,1671625090.89,524,126831,73162
55732,9861.725300467348,1671625090.89,524,126831,73162
55733,9861.732467917338,1671625090.89,525,126828,73170
55733,9861.739635367328,1671625090.89,525,126828,73170
55734,9861.766720109059,1671625090.998,525,126837,73190
55734,9861.774544377695,1671625090.998,525,126837,73190
55735,9861.78236864633,1671625090.998,526,126914,73206
55735,9861.790192914967,1671625090.998,526,126914,73206
55736,9861.798017183602,1671625090.998,526,126907,73188
55736,9861.805841452238,1671625090.998,526,126907,73188
55737,9861.813665720874,1671625090.998,525,126880,73200
55737,9861.82148998951,1671625090.998,525,126880,73200
55738,9861.829314258146,1671625090.998,523,126912,73204
55738,9861.837138526782,1671625090.998,523,126912,73204
55739,9861.844962795418,1671625090.998,523,126937,73196
55739,9861.852787064054,1671625090.998,523,126937,73196
55740,9861.86061133269,1671625091.124,524,126993,73200
55740,9861.868435601325,1671625091.124,524,126993,73200
55741,9861.876259869961,1671625091.124,525,126917,73203
55741,9861.884084138597,1671625091.124,525,126917,73203
55742,9861.891908407233,1671625091.124,524,126973,73246
55742,9861.899732675869,1671625091.124,524,126973,73246
55743,9861.907556944505,1671625091.124,524,126966,73225
55743,9861.91538121314,1671625091.124,524,126966,73225
55744,9861.961120820788,1671625091.124,523,126969,73233
55744,9861.970944059976,1671625091.124,523,126969,73233
55745,9861.980767299165,1671625091.124,524,127006,73219
55745,9861.990590538353,1671625091.124,524,127006,73219
55746,9862.000413777541,1671625091.163,524,127045,73231
55746,9862.01023701673,1671625091.163,524,127045,73231
55747,9862.020060255918,1671625091.163,523,127003,73240
55747,9862.029883495106,1671625091.163,523,127003,73240
55748,9862.039706734295,1671625091.163,525,127005,73223
55748,9862.049529973483,1671625091.163,525,127005,73223
55749,9862.059353212671,1671625091.163,526,127060,73226
55749,9862.06917645186,1671625091.163,526,127060,73226
55750,9862.078999691048,1671625091.163,525,126985,73238
55750,9862.088822930236,1671625091.163,525,126985,73238
55751,9862.098646169425,1671625091.163,525,126925,73205
55751,9862.108469408613,1671625091.163,525,126925,73205
55752,9862.118292647801,1671625091.265,525,126958,73209
55752,9862.12811588699,1671625091.265,525,126958,73209
55753,9862.137939126178,1671625091.265,524,126942,73200
55753,9862.147762365366,1671625091.265,524,126942,73200
55754,9862.071012829681,1671625091.265,524,126877,73183
55754,9862.077522050631,1671625091.265,524,126877,73183
55755,9862.08403127158,1671625091.265,523,126878,73162
55755,9862.09054049253,1671625091.265,523,126878,73162
55756,9862.09704971348,1671625091.265,526,126849,73177
55756,9862.10355893443,1671625091.265,526,126849,73177
55757,9862.11006815538,1671625091.265,526,126847,73155
55757,9862.11657737633,1671625091.265,526,126847,73155
55758,9862.12308659728,1671625091.36,525,126767,73183
55758,9862.129595818229,1671625091.36,525,126767,73183
55759,9862.136105039179,1671625091.36,525,126820,73183
55759,9862.142614260129,1671625091.36,525,126820,73183
55760,9862.149123481078,1671625091.36,525,126816,73181
55760,9862.155632702028,1671625091.36,525,126816,73181
55761,9862.162141922978,1671625091.36,525,126880,73188
55761,9862.168651143927,1671625091.36,525,126880,73188
55762,9862.175160364877,1671625091.36,524,126835,73192
55762,9862.181669585827,1671625091.36,524,126835,73192
55763,9862.188178806777,1671625091.36,524,126836,73187
55763,9862.194688027726,1671625091.36,524,126836,73187
55764,9862.23618797024,1671625091.452,525,126849,73207
55764,9862.243627835796,1671625091.452,525,126849,73207
55765,9862.251067701352,1671625091.452,525,126861,73196
55765,9862.258507566909,1671625091.452,525,126861,73196
55766,9862.265947432465,1671625091.452,526,126801,73189
55766,9862.27338729802,1671625091.452,526,126801,73189
55767,9862.280827163577,1671625091.452,525,126871,73178
55767,9862.288267029133,1671625091.452,525,126871,73178
55768,9862.295706894689,1671625091.452,525,126844,73196
55768,9862.303146760245,1671625091.452,525,126844,73196
55769,9862.310586625801,1671625091.452,524,126809,73192
55769,9862.318026491357,1671625091.452,524,126809,73192
55770,9862.325466356913,1671625091.547,526,126810,73203
