id,lsl_ts,unix_ts,ambient,ir,red
151164,12760.393732366667,1671627989.541,543,103429,60909
151164,12760.393732366667,1671627989.541,543,103429,60909
151165,12760.396432133333,1671627989.541,522,112805,61287
151165,12760.396432133333,1671627989.541,522,112805,61287
151166,12760.399131900002,1671627989.541,522,112691,61281
151166,12760.399131900002,1671627989.541,522,112691,61281
151167,12760.401831666668,1671627989.541,523,112769,61258
151167,12760.401831666668,1671627989.541,523,112769,61258
151168,12760.404531433334,1671627989.541,523,112722,61232
151168,12760.404531433334,1671627989.541,523,112722,61232
151169,12760.4072312,1671627989.541,522,112701,61236
151169,12760.4072312,1671627989.541,522,112701,61236
151170,12760.416663566668,1671627989.597,522,112629,61216
151170,12760.416663566668,1671627989.597,522,112629,61216
151171,12760.426095933333,1671627989.597,521,112636,61191
151171,12760.426095933333,1671627989.597,521,112636,61191
151172,12760.4355283,1671627989.597,519,112594,61193
151172,12760.4355283,1671627989.597,519,112594,61193
151173,12760.444960666668,1671627989.597,520,112628,61178
151173,12760.444960666668,1671627989.597,520,112628,61178
151174,12760.454393033333,1671627989.597,520,112649,61166
151174,12760.454393033333,1671627989.597,520,112649,61166
151175,12760.4638254,1671627989.597,520,112603,61188
151175,12760.4638254,1671627989.597,520,112603,61188
151176,12760.477496916666,1671627989.679,523,112661,61155
151176,12760.477496916666,1671627989.679,523,112661,61155
151177,12760.491168433333,1671627989.679,521,112609,61152
151177,12760.491168433333,1671627989.679,521,112609,61152
151178,12760.504839950001,1671627989.679,520,112596,61180
151178,12760.504839950001,1671627989.679,520,112596,61180
151179,12760.518511466667,1671627989.679,520,112591,61129
151179,12760.518511466667,1671627989.679,520,112591,61129
151180,12760.532182983334,1671627989.679,520,112584,61144
151180,12760.532182983334,1671627989.679,520,112584,61144
151181,12760.5458545,1671627989.679,518,112592,61129
151181,12760.5458545,1671627989.679,518,112592,61129
151182,12760.5599547,1671627989.764,520,112542,61130
151182,12760.5599547,1671627989.764,520,112542,61130
151183,12760.5740549,1671627989.764,520,112633,61123
151183,12760.5740549,1671627989.764,520,112633,61123
151184,12760.5881551,1671627989.764,519,112579,61125
151184,12760.5881551,1671627989.764,519,112579,61125
151185,12760.6022553,1671627989.764,519,112609,61132
151185,12760.6022553,1671627989.764,519,112609,61132
151186,12760.6163555,1671627989.764,519,112589,61128
151186,12760.6163555,1671627989.764,519,112589,61128
151187,12760.6304557,1671627989.764,518,112581,61111
151187,12760.6304557,1671627989.764,518,112581,61111
151188,12760.645703850001,1671627989.856,517,112587,61112
151188,12760.645703850001,1671627989.856,517,112587,61112
151189,12760.660952,1671627989.856,519,112600,61139
151189,12760.660952,1671627989.856,519,112600,61139
151190,12760.67620015,1671627989.856,521,112636,61131
151190,12760.67620015,1671627989.856,521,112636,61131
151191,12760.6914483,1671627989.856,520,112627,61098
151191,12760.6914483,1671627989.856,520,112627,61098
151192,12760.70669645,1671627989.856,520,112629,61108
151192,12760.70669645,1671627989.856,520,112629,61108
151193,12760.7219446,1671627989.856,519,112648,61143
151193,12760.7219446,1671627989.856,519,112648,61143
151194,12760.738218466668,1671627989.953,520,112592,61126
151194,12760.738218466668,1671627989.953,520,112592,61126
151195,12760.754492333333,1671627989.953,520,112689,61118
151195,12760.754492333333,1671627989.953,520,112689,61118
151196,12760.7707662,1671627989.953,519,112655,61123
151196,12760.7707662,1671627989.953,519,112655,61123
151197,12760.787040066667,1671627989.953,519,112614,61115
151197,12760.787040066667,1671627989.953,519,112614,61115
151198,12760.803313933335,1671627989.953,520,112687,61096
151198,12760.803313933335,1671627989.953,520,112687,61096
151199,12760.8195878,1671627989.953,520,112678,61118
151199,12760.8195878,1671627989.953,520,112678,61118
151200,12760.835527666666,1671627990.049,520,112679,61131
151200,12760.835527666666,1671627990.049,520,112679,61131
151201,12760.851467533334,1671627990.049,520,112687,61146
151201,12760.851467533334,1671627990.049,520,112687,61146
151202,12760.867407400001,1671627990.049,519,112713,61117
151202,12760.867407400001,1671627990.049,519,112713,61117
151203,12760.883347266667,1671627990.049,518,112756,61124
151203,12760.883347266667,1671627990.049,518,112756,61124
151204,12760.899287133332,1671627990.049,519,112758,61141
151204,12760.899287133332,1671627990.049,519,112758,61141
151205,12760.915227,1671627990.049,519,112765,61134
151205,12760.915227,1671627990.049,519,112765,61134
151206,12760.930155516666,1671627990.138,519,112818,61135
151206,12760.930155516666,1671627990.138,519,112818,61135
151207,12760.945084033334,1671627990.138,521,112760,61135
151207,12760.945084033334,1671627990.138,521,112760,61135
151208,12760.96001255,1671627990.138,521,112833,61157
151208,12760.96001255,1671627990.138,521,112833,61157
151209,12760.974941066666,1671627990.138,520,112834,61148
151209,12760.974941066666,1671627990.138,520,112834,61148
151210,12760.989869583334,1671627990.138,520,112856,61141
151210,12760.989869583334,1671627990.138,520,112856,61141
151211,12761.0047981,1671627990.138,520,112852,61162
151211,12761.0047981,1671627990.138,520,112852,61162
151212,12761.021226516667,1671627990.237,520,112889,61174
151212,12761.021226516667,1671627990.237,520,112889,61174
151213,12761.037654933334,1671627990.237,519,112859,61160
151213,12761.037654933334,1671627990.237,519,112859,61160
151214,12761.05408335,1671627990.237,519,112879,61167
151214,12761.05408335,1671627990.237,519,112879,61167
151215,12761.070511766666,1671627990.237,521,112917,61170
151215,12761.070511766666,1671627990.237,521,112917,61170
151216,12761.086940183333,1671627990.237,521,112905,61179
151216,12761.086940183333,1671627990.237,521,112905,61179
151217,12761.1033686,1671627990.237,521,112938,61197
151217,12761.1033686,1671627990.237,521,112938,61197
151218,12761.118007183333,1671627990.325,518,112968,61166
151218,12761.118007183333,1671627990.325,518,112968,61166
151219,12761.132645766666,1671627990.325,520,112990,61184
151219,12761.132645766666,1671627990.325,520,112990,61184
151220,12761.14728435,1671627990.325,520,113003,61190
151220,12761.14728435,1671627990.325,520,113003,61190
151221,12761.161922933334,1671627990.325,520,112997,61197
151221,12761.161922933334,1671627990.325,520,112997,61197
151222,12761.176561516666,1671627990.325,521,113046,61205
151222,12761.176561516666,1671627990.325,521,113046,61205
151223,12761.1912001,1671627990.325,520,113061,61202
151223,12761.1912001,1671627990.325,520,113061,61202
151224,12761.2077975,1671627990.424,520,113044,61201
151224,12761.2077975,1671627990.424,520,113044,61201
151225,12761.2243949,1671627990.424,520,113008,61190
151225,12761.2243949,1671627990.424,520,113008,61190
151226,12761.240992300001,1671627990.424,520,113107,61212
151226,12761.240992300001,1671627990.424,520,113107,61212
151227,12761.2575897,1671627990.424,519,113027,61202
151227,12761.2575897,1671627990.424,519,113027,61202
151228,12761.2741871,1671627990.424,520,112995,61200
151228,12761.2741871,1671627990.424,520,112995,61200
151229,12761.2907845,1671627990.424,519,112907,61173
151229,12761.2907845,1671627990.424,519,112907,61173
151230,12761.306797683334,1671627990.52,520,112876,61162
151230,12761.306797683334,1671627990.52,520,112876,61162
151231,12761.322810866668,1671627990.52,521,112729,61131
151231,12761.322810866668,1671627990.52,521,112729,61131
151232,12761.33882405,1671627990.52,520,112784,61126
151232,12761.33882405,1671627990.52,520,112784,61126
151233,12761.354837233333,1671627990.52,520,112677,61113
151233,12761.354837233333,1671627990.52,520,112677,61113
151234,12761.370850416668,1671627990.52,519,112708,61095
151234,12761.370850416668,1671627990.52,519,112708,61095
151235,12761.3868636,1671627990.52,519,112687,61100
151235,12761.3868636,1671627990.52,519,112687,61100
151236,12761.400997516666,1671627990.605,520,112667,61088
151236,12761.400997516666,1671627990.605,520,112667,61088
151237,12761.415131433334,1671627990.605,520,112634,61049
151237,12761.415131433334,1671627990.605,520,112634,61049
151238,12761.429265350002,1671627990.605,520,112558,61071
151238,12761.429265350002,1671627990.605,520,112558,61071
151239,12761.443399266667,1671627990.605,520,112597,61067
151239,12761.443399266667,1671627990.605,520,112597,61067
151240,12761.457533183333,1671627990.605,520,112561,61054
151240,12761.457533183333,1671627990.605,520,112561,61054
151241,12761.4716671,1671627990.605,519,112567,61030
151241,12761.4716671,1671627990.605,519,112567,61030
151242,12761.4882808,1671627990.705,519,112516,61056
151242,12761.4882808,1671627990.705,519,112516,61056
151243,12761.5048945,1671627990.705,519,112514,61036
151243,12761.5048945,1671627990.705,519,112514,61036
151244,12761.5215082,1671627990.705,519,112540,61017
151244,12761.5215082,1671627990.705,519,112540,61017
151245,12761.538121900001,1671627990.705,519,112497,61031
151245,12761.538121900001,1671627990.705,519,112497,61031
151246,12761.5547356,1671627990.705,521,112539,61026
151246,12761.5547356,1671627990.705,521,112539,61026
151247,12761.5713493,1671627990.705,520,112490,61023
151247,12761.5713493,1671627990.705,520,112490,61023
151248,12761.587440066667,1671627990.801,520,112564,61019
151248,12761.587440066667,1671627990.801,520,112564,61019
151249,12761.603530833334,1671627990.801,520,112490,60992
151249,12761.603530833334,1671627990.801,520,112490,60992
151250,12761.619621599999,1671627990.801,519,112467,61000
151250,12761.619621599999,1671627990.801,519,112467,61000
151251,12761.635712366666,1671627990.801,519,112491,61009
151251,12761.635712366666,1671627990.801,519,112491,61009
151252,12761.651803133333,1671627990.801,519,112468,60992
151252,12761.651803133333,1671627990.801,519,112468,60992
151253,12761.6678939,1671627990.801,519,112438,61000
151253,12761.6678939,1671627990.801,519,112438,61000
151254,12761.682655999999,1671627990.89,520,112470,60991
151254,12761.682655999999,1671627990.89,520,112470,60991
151255,12761.6974181,1671627990.89,520,112505,60985
151255,12761.6974181,1671627990.89,520,112505,60985
151256,12761.7121802,1671627990.89,521,112523,60981
151256,12761.7121802,1671627990.89,521,112523,60981
151257,12761.7269423,1671627990.89,519,112480,60998
151257,12761.7269423,1671627990.89,519,112480,60998
151258,12761.741704400001,1671627990.89,520,112522,60993
151258,12761.741704400001,1671627990.89,520,112522,60993
151259,12761.7564665,1671627990.89,519,112482,60995
151259,12761.7564665,1671627990.89,519,112482,60995
151260,12761.7710917,1671627990.978,519,112525,60981
151260,12761.7710917,1671627990.978,519,112525,60981
151261,12761.7857169,1671627990.978,520,112548,60975
151261,12761.7857169,1671627990.978,520,112548,60975
151262,12761.8003421,1671627990.978,521,112561,61008
151262,12761.8003421,1671627990.978,521,112561,61008
151263,12761.8149673,1671627990.978,520,112567,61001
151263,12761.8149673,1671627990.978,520,112567,61001
151264,12761.8295925,1671627990.978,520,112587,60989
151264,12761.8295925,1671627990.978,520,112587,60989
151265,12761.8442177,1671627990.978,519,112547,60980
151265,12761.8442177,1671627990.978,519,112547,60980
151266,12761.860443966667,1671627991.075,519,112525,61009
151266,12761.860443966667,1671627991.075,519,112525,61009
151267,12761.876670233332,1671627991.075,519,112604,60996
151267,12761.876670233332,1671627991.075,519,112604,60996
151268,12761.8928965,1671627991.075,518,112622,60997
151268,12761.8928965,1671627991.075,518,112622,60997
151269,12761.909122766667,1671627991.075,519,112557,61007
151269,12761.909122766667,1671627991.075,519,112557,61007
151270,12761.925349033332,1671627991.075,520,112626,60993
151270,12761.925349033332,1671627991.075,520,112626,60993
151271,12761.9415753,1671627991.075,521,112593,60996
151271,12761.9415753,1671627991.075,521,112593,60996
151272,12761.958456566666,1671627991.176,519,112646,61000
151272,12761.958456566666,1671627991.176,519,112646,61000
151273,12761.975337833333,1671627991.176,519,112561,61022
151273,12761.975337833333,1671627991.176,519,112561,61022
151274,12761.9922191,1671627991.176,520,112604,61009
151274,12761.9922191,1671627991.176,520,112604,61009
151275,12762.009100366666,1671627991.176,520,112695,61013
151275,12762.009100366666,1671627991.176,520,112695,61013
151276,12762.025981633333,1671627991.176,518,112656,61001
151276,12762.025981633333,1671627991.176,518,112656,61001
151277,12762.0428629,1671627991.176,520,112673,61002
151277,12762.0428629,1671627991.176,520,112673,61002
151278,12762.0574447,1671627991.264,522,112677,61010
151278,12762.0574447,1671627991.264,522,112677,61010
151279,12762.0720265,1671627991.264,521,112731,61030
151279,12762.0720265,1671627991.264,521,112731,61030
151280,12762.0866083,1671627991.264,520,112674,61032
151280,12762.0866083,1671627991.264,520,112674,61032
151281,12762.1011901,1671627991.264,518,112717,61014
151281,12762.1011901,1671627991.264,518,112717,61014
151282,12762.1157719,1671627991.264,520,112736,61014
151282,12762.1157719,1671627991.264,520,112736,61014
151283,12762.1303537,1671627991.264,518,112775,61043
151283,12762.1303537,1671627991.264,518,112775,61043
151284,12762.145364283333,1671627991.354,518,112789,61038
151284,12762.145364283333,1671627991.354,518,112789,61038
151285,12762.160374866668,1671627991.354,518,112799,61043
151285,12762.160374866668,1671627991.354,518,112799,61043
151286,12762.17538545,1671627991.354,519,112780,61044
151286,12762.17538545,1671627991.354,519,112780,61044
151287,12762.190396033333,1671627991.354,519,112776,61044
151287,12762.190396033333,1671627991.354,519,112776,61044
151288,12762.205406616667,1671627991.354,518,112864,61043
151288,12762.205406616667,1671627991.354,518,112864,61043
151289,12762.2204172,1671627991.354,519,112829,61059
151289,12762.2204172,1671627991.354,519,112829,61059
151290,12762.236768666666,1671627991.452,518,112872,61060
151290,12762.236768666666,1671627991.452,518,112872,61060
151291,12762.253120133333,1671627991.452,519,112870,61054
151291,12762.253120133333,1671627991.452,519,112870,61054
151292,12762.2694716,1671627991.452,519,112853,61062
151292,12762.2694716,1671627991.452,519,112853,61062
151293,12762.285823066666,1671627991.452,518,112873,61065
151293,12762.285823066666,1671627991.452,518,112873,61065
151294,12762.302174533332,1671627991.452,519,112895,61066
151294,12762.302174533332,1671627991.452,519,112895,61066
151295,12762.318526,1671627991.452,518,112935,61082
151295,12762.318526,1671627991.452,518,112935,61082
151296,12762.3342609,1671627991.547,519,112910,61081
151296,12762.3342609,1671627991.547,519,112910,61081
151297,12762.3499958,1671627991.547,519,112969,61086
151297,12762.3499958,1671627991.547,519,112969,61086
151298,12762.3657307,1671627991.547,519,112976,61098
151298,12762.3657307,1671627991.547,519,112976,61098
151299,12762.3814656,1671627991.547,516,113023,61082
151299,12762.3814656,1671627991.547,516,113023,61082
151300,12762.3972005,1671627991.547,517,112993,61101
151300,12762.3972005,1671627991.547,517,112993,61101
151301,12762.4129354,1671627991.547,517,113016,61101
151301,12762.4129354,1671627991.547,517,113016,61101
151302,12762.428422033332,1671627991.639,519,113050,61112
151302,12762.428422033332,1671627991.639,519,113050,61112
151303,12762.443908666666,1671627991.639,516,113087,61106
151303,12762.443908666666,1671627991.639,516,113087,61106
151304,12762.4593953,1671627991.639,517,112978,61088
151304,12762.4593953,1671627991.639,517,112978,61088
151305,12762.474881933333,1671627991.639,516,112859,61061
151305,12762.474881933333,1671627991.639,516,112859,61061
151306,12762.490368566665,1671627991.639,517,112751,61032
151306,12762.490368566665,1671627991.639,517,112751,61032
151307,12762.5058552,1671627991.639,515,112701,61018
151307,12762.5058552,1671627991.639,515,112701,61018
151308,12762.5208915,1671627991.73,516,112718,61033
151308,12762.5208915,1671627991.73,516,112718,61033
151309,12762.5359278,1671627991.73,516,112687,61017
151309,12762.5359278,1671627991.73,516,112687,61017
151310,12762.550964099999,1671627991.73,517,112627,60989
151310,12762.550964099999,1671627991.73,517,112627,60989
151311,12762.5660004,1671627991.73,516,112602,61006
151311,12762.5660004,1671627991.73,516,112602,61006
151312,12762.581036700001,1671627991.73,516,112568,60977
151312,12762.581036700001,1671627991.73,516,112568,60977
151313,12762.596073,1671627991.73,514,112526,60979
151313,12762.596073,1671627991.73,514,112526,60979
151314,12762.611042016668,1671627991.819,515,112492,60956
151314,12762.611042016668,1671627991.819,515,112492,60956
151315,12762.626011033333,1671627991.819,514,112472,60941
151315,12762.626011033333,1671627991.819,514,112472,60941
151316,12762.64098005,1671627991.819,514,112479,60939
151316,12762.64098005,1671627991.819,514,112479,60939
151317,12762.655949066668,1671627991.819,515,112456,60927
151317,12762.655949066668,1671627991.819,515,112456,60927
151318,12762.670918083333,1671627991.819,517,112453,60920
151318,12762.670918083333,1671627991.819,517,112453,60920
151319,12762.6858871,1671627991.819,516,112410,60931
151319,12762.6858871,1671627991.819,516,112410,60931
151320,12762.703666283334,1671627991.926,516,112449,60915
151320,12762.703666283334,1671627991.926,516,112449,60915
151321,12762.721445466666,1671627991.926,516,112407,60904
151321,12762.721445466666,1671627991.926,516,112407,60904
151322,12762.73922465,1671627991.926,516,112403,60910
151322,12762.73922465,1671627991.926,516,112403,60910
151323,12762.757003833334,1671627991.926,516,112469,60890
151323,12762.757003833334,1671627991.926,516,112469,60890
151324,12762.774783016666,1671627991.926,515,112381,60910
151324,12762.774783016666,1671627991.926,515,112381,60910
151325,12762.7925622,1671627991.926,516,112403,60887
151325,12762.7925622,1671627991.926,516,112403,60887
151326,12762.807261566668,1671627992.014,516,112364,60860
151326,12762.807261566668,1671627992.014,516,112364,60860
151327,12762.821960933334,1671627992.014,517,112272,60893
151327,12762.821960933334,1671627992.014,517,112272,60893
151328,12762.8366603,1671627992.014,516,112347,60884
151328,12762.8366603,1671627992.014,516,112347,60884
151329,12762.851359666667,1671627992.014,516,112393,60888
151329,12762.851359666667,1671627992.014,516,112393,60888
151330,12762.866059033335,1671627992.014,514,112418,60847
151330,12762.866059033335,1671627992.014,514,112418,60847
151331,12762.8807584,1671627992.014,514,112363,60862
151331,12762.8807584,1671627992.014,514,112363,60862
151332,12762.895485550001,1671627992.103,515,112384,60848
151332,12762.895485550001,1671627992.103,515,112384,60848
151333,12762.9102127,1671627992.103,515,112353,60852
151333,12762.9102127,1671627992.103,515,112353,60852
151334,12762.92493985,1671627992.103,515,112365,60877
151334,12762.92493985,1671627992.103,515,112365,60877
151335,12762.939667,1671627992.103,517,112362,60867
151335,12762.939667,1671627992.103,517,112362,60867
151336,12762.954394150001,1671627992.103,517,112391,60851
151336,12762.954394150001,1671627992.103,517,112391,60851
151337,12762.9691213,1671627992.103,514,112444,60854
151337,12762.9691213,1671627992.103,514,112444,60854
151338,12762.985640316667,1671627992.202,514,112413,60852
151338,12762.985640316667,1671627992.202,514,112413,60852
151339,12763.002159333333,1671627992.202,514,112388,60858
151339,12763.002159333333,1671627992.202,514,112388,60858
151340,12763.01867835,1671627992.202,515,112419,60857
151340,12763.01867835,1671627992.202,515,112419,60857
151341,12763.035197366667,1671627992.202,516,112407,60857
151341,12763.035197366667,1671627992.202,516,112407,60857
151342,12763.051716383334,1671627992.202,518,112430,60873
151342,12763.051716383334,1671627992.202,518,112430,60873
151343,12763.0682354,1671627992.202,515,112421,60876
151343,12763.0682354,1671627992.202,515,112421,60876
151344,12763.0868229,1671627992.313,515,112428,60843
151344,12763.0868229,1671627992.313,515,112428,60843
151345,12763.1054104,1671627992.313,514,112459,60850
151345,12763.1054104,1671627992.313,514,112459,60850
151346,12763.1239979,1671627992.313,515,112441,60853
151346,12763.1239979,1671627992.313,515,112441,60853
151347,12763.1425854,1671627992.313,515,112488,60871
151347,12763.1425854,1671627992.313,515,112488,60871
151348,12763.1611729,1671627992.313,515,112455,60856
151348,12763.1611729,1671627992.313,515,112455,60856
151349,12763.1797604,1671627992.313,515,112524,60861
151349,12763.1797604,1671627992.313,515,112524,60861
151350,12763.19205005,1671627992.387,516,112492,60881
151350,12763.19205005,1671627992.387,516,112492,60881
151351,12763.2043397,1671627992.387,514,112460,60856
151351,12763.2043397,1671627992.387,514,112460,60856
151352,12763.216629350001,1671627992.387,515,112560,60873
151352,12763.216629350001,1671627992.387,515,112560,60873
151353,12763.228919000001,1671627992.387,514,112526,60864
151353,12763.228919000001,1671627992.387,514,112526,60864
151354,12763.24120865,1671627992.387,515,112596,60849
151354,12763.24120865,1671627992.387,515,112596,60849
151355,12763.2534983,1671627992.387,515,112535,60887
151355,12763.2534983,1671627992.387,515,112535,60887
151356,12763.268226733333,1671627992.475,515,112580,60874
151356,12763.268226733333,1671627992.475,515,112580,60874
151357,12763.282955166667,1671627992.475,516,112596,60896
151357,12763.282955166667,1671627992.475,516,112596,60896
151358,12763.2976836,1671627992.475,517,112580,60895
151358,12763.2976836,1671627992.475,517,112580,60895
151359,12763.312412033332,1671627992.475,515,112579,60892
151359,12763.312412033332,1671627992.475,515,112579,60892
151360,12763.327140466667,1671627992.475,515,112589,60895
151360,12763.327140466667,1671627992.475,515,112589,60895
151361,12763.3418689,1671627992.475,515,112563,60887
151361,12763.3418689,1671627992.475,515,112563,60887
151362,12763.358912583333,1671627992.578,514,112639,60889
151362,12763.358912583333,1671627992.578,514,112639,60889
151363,12763.375956266666,1671627992.578,515,112662,60917
151363,12763.375956266666,1671627992.578,515,112662,60917
151364,12763.39299995,1671627992.578,514,112680,60901
151364,12763.39299995,1671627992.578,514,112680,60901
151365,12763.410043633334,1671627992.578,516,112676,60912
151365,12763.410043633334,1671627992.578,516,112676,60912
151366,12763.427087316666,1671627992.578,515,112704,60930
151366,12763.427087316666,1671627992.578,515,112704,60930
151367,12763.444131,1671627992.578,516,112692,60916
151367,12763.444131,1671627992.578,516,112692,60916
151368,12763.461559316667,1671627992.682,516,112740,60912
151368,12763.461559316667,1671627992.682,516,112740,60912
151369,12763.478987633334,1671627992.682,512,112761,60937
151369,12763.478987633334,1671627992.682,512,112761,60937
151370,12763.496415950001,1671627992.682,514,112770,60925
151370,12763.496415950001,1671627992.682,514,112770,60925
151371,12763.513844266667,1671627992.682,514,112780,60942
151371,12763.513844266667,1671627992.682,514,112780,60942
151372,12763.531272583334,1671627992.682,515,112763,60937
151372,12763.531272583334,1671627992.682,515,112763,60937
151373,12763.5487009,1671627992.682,515,112750,60930
151373,12763.5487009,1671627992.682,515,112750,60930
151374,12763.562606616668,1671627992.766,514,112735,60916
151374,12763.562606616668,1671627992.766,514,112735,60916
151375,12763.576512333333,1671627992.766,516,112622,60872
151375,12763.576512333333,1671627992.766,516,112622,60872
151376,12763.59041805,1671627992.766,512,112590,60879
151376,12763.59041805,1671627992.766,512,112590,60879
151377,12763.604323766667,1671627992.766,512,112515,60859
151377,12763.604323766667,1671627992.766,512,112515,60859
151378,12763.618229483332,1671627992.766,514,112340,60849
151378,12763.618229483332,1671627992.766,514,112340,60849
151379,12763.6321352,1671627992.766,515,112401,60822
151379,12763.6321352,1671627992.766,515,112401,60822
151380,12763.647148799999,1671627992.856,514,112376,60820
151380,12763.647148799999,1671627992.856,514,112376,60820
151381,12763.6621624,1671627992.856,516,112328,60826
151381,12763.6621624,1671627992.856,516,112328,60826
151382,12763.677176000001,1671627992.856,515,112359,60806
151382,12763.677176000001,1671627992.856,515,112359,60806
151383,12763.6921896,1671627992.856,514,112314,60803
151383,12763.6921896,1671627992.856,514,112314,60803
151384,12763.7072032,1671627992.856,516,112316,60805
151384,12763.7072032,1671627992.856,516,112316,60805
151385,12763.7222168,1671627992.856,514,112291,60787
151385,12763.7222168,1671627992.856,514,112291,60787
151386,12763.737864566667,1671627992.95,514,112256,60794
151386,12763.737864566667,1671627992.95,514,112256,60794
151387,12763.753512333335,1671627992.95,515,112329,60770
151387,12763.753512333335,1671627992.95,515,112329,60770
151388,12763.7691601,1671627992.95,515,112287,60767
151388,12763.7691601,1671627992.95,515,112287,60767
151389,12763.784807866667,1671627992.95,515,112284,60762
151389,12763.784807866667,1671627992.95,515,112284,60762
151390,12763.800455633334,1671627992.95,515,112297,60772
151390,12763.800455633334,1671627992.95,515,112297,60772
151391,12763.8161034,1671627992.95,515,112263,60776
151391,12763.8161034,1671627992.95,515,112263,60776
151392,12763.8325722,1671627993.049,514,112277,60779
151392,12763.8325722,1671627993.049,514,112277,60779
151393,12763.849041,1671627993.049,514,112246,60759
151393,12763.849041,1671627993.049,514,112246,60759
151394,12763.8655098,1671627993.049,514,112232,60751
151394,12763.8655098,1671627993.049,514,112232,60751
151395,12763.8819786,1671627993.049,515,112253,60752
151395,12763.8819786,1671627993.049,515,112253,60752
151396,12763.898447399999,1671627993.049,515,112238,60715
151396,12763.898447399999,1671627993.049,515,112238,60715
151397,12763.9149162,1671627993.049,516,112230,60729
151397,12763.9149162,1671627993.049,516,112230,60729
151398,12763.929752083333,1671627993.138,514,112218,60725
151398,12763.929752083333,1671627993.138,514,112218,60725
151399,12763.944587966665,1671627993.138,514,112267,60736
151399,12763.944587966665,1671627993.138,514,112267,60736
151400,12763.95942385,1671627993.138,511,112188,60720
151400,12763.95942385,1671627993.138,511,112188,60720
151401,12763.974259733333,1671627993.138,514,112192,60725
151401,12763.974259733333,1671627993.138,514,112192,60725
151402,12763.989095616666,1671627993.138,515,112228,60702
151402,12763.989095616666,1671627993.138,515,112228,60702
151403,12764.0039315,1671627993.138,515,112241,60733
151403,12764.0039315,1671627993.138,515,112241,60733
151404,12764.019468783332,1671627993.231,515,112221,60725
151404,12764.019468783332,1671627993.231,515,112221,60725
151405,12764.035006066666,1671627993.231,515,112200,60720
151405,12764.035006066666,1671627993.231,515,112200,60720
151406,12764.05054335,1671627993.231,512,112306,60728
151406,12764.05054335,1671627993.231,512,112306,60728
151407,12764.066080633333,1671627993.231,512,112231,60732
151407,12764.066080633333,1671627993.231,512,112231,60732
151408,12764.081617916665,1671627993.231,512,112240,60723
151408,12764.081617916665,1671627993.231,512,112240,60723
151409,12764.0971552,1671627993.231,514,112272,60717
151409,12764.0971552,1671627993.231,514,112272,60717
151410,12764.112706466665,1671627993.324,514,112300,60706
151410,12764.112706466665,1671627993.324,514,112300,60706
151411,12764.128257733333,1671627993.324,514,112307,60709
151411,12764.128257733333,1671627993.324,514,112307,60709
151412,12764.143809,1671627993.324,514,112326,60700
151412,12764.143809,1671627993.324,514,112326,60700
151413,12764.159360266665,1671627993.324,516,112297,60731
151413,12764.159360266665,1671627993.324,516,112297,60731
151414,12764.16883576575,1671627993.324,515,112343,60723
151414,12764.176124941798,1671627993.324,515,112343,60723
151415,12764.183414117846,1671627993.324,514,112356,60733
151415,12764.190703293894,1671627993.324,514,112356,60733
151416,12764.197992469943,1671627993.425,514,112347,60717
151416,12764.20528164599,1671627993.425,514,112347,60717
151417,12764.21257082204,1671627993.425,516,112389,60730
151417,12764.219859998087,1671627993.425,516,112389,60730
151418,12764.227149174136,1671627993.425,514,112309,60725
151418,12764.234438350184,1671627993.425,514,112309,60725
151419,12764.241727526232,1671627993.425,514,112390,60719
151419,12764.24901670228,1671627993.425,514,112390,60719
151420,12764.256305878329,1671627993.425,515,112365,60738
151420,12764.263595054377,1671627993.425,515,112365,60738
151421,12764.270884230426,1671627993.425,515,112398,60730
151421,12764.278173406474,1671627993.425,515,112398,60730
151422,12764.285462582522,1671627993.524,514,112373,60745
151422,12764.29275175857,1671627993.524,514,112373,60745
151423,12764.300040934619,1671627993.524,512,112388,60739
151423,12764.307330110667,1671627993.524,512,112388,60739
151424,12764.334114738409,1671627993.524,512,112436,60736
151424,12764.341884714424,1671627993.524,512,112436,60736
151425,12764.349654690439,1671627993.524,512,112398,60726
151425,12764.357424666454,1671627993.524,512,112398,60726
151426,12764.365194642469,1671627993.524,512,112397,60744
151426,12764.372964618484,1671627993.524,512,112397,60744
151427,12764.380734594499,1671627993.524,514,112485,60748
151427,12764.388504570514,1671627993.524,514,112485,60748
151428,12764.396274546529,1671627993.604,514,112438,60743
151428,12764.404044522544,1671627993.604,514,112438,60743
151429,12764.411814498559,1671627993.604,516,112435,60750
151429,12764.419584474574,1671627993.604,516,112435,60750
151430,12764.427354450589,1671627993.604,514,112486,60744
151430,12764.435124426604,1671627993.604,514,112486,60744
151431,12764.442894402619,1671627993.604,512,112438,60733
151431,12764.450664378634,1671627993.604,512,112438,60733
151432,12764.458434354648,1671627993.604,514,112400,60724
151432,12764.466204330663,1671627993.604,514,112400,60724
151433,12764.473974306678,1671627993.604,512,112314,60709
151433,12764.481744282693,1671627993.604,512,112314,60709
151434,12764.478086853025,1671627993.699,514,112273,60691
151434,12764.48434668258,1671627993.699,514,112273,60691
151435,12764.490606512136,1671627993.699,512,112169,60674
151435,12764.496866341691,1671627993.699,512,112169,60674
151436,12764.503126171247,1671627993.699,514,112173,60662
151436,12764.509386000802,1671627993.699,514,112173,60662
151437,12764.515645830357,1671627993.699,515,112163,60643
151437,12764.521905659913,1671627993.699,515,112163,60643
151438,12764.528165489468,1671627993.699,515,112121,60656
151438,12764.534425319023,1671627993.699,515,112121,60656
151439,12764.540685148579,1671627993.699,515,112074,60631
151439,12764.546944978134,1671627993.699,515,112074,60631
151440,12764.55320480769,1671627993.801,514,112086,60627
151440,12764.559464637245,1671627993.801,514,112086,60627
151441,12764.5657244668,1671627993.801,512,112093,60603
151441,12764.571984296355,1671627993.801,512,112093,60603
151442,12764.57824412591,1671627993.801,514,112074,60626
151442,12764.584503955466,1671627993.801,514,112074,60626
151443,12764.590763785021,1671627993.801,512,112056,60593
151443,12764.597023614577,1671627993.801,512,112056,60593
151444,12764.643348294978,1671627993.801,514,112029,60598
151444,12764.651261290353,1671627993.801,514,112029,60598
151445,12764.659174285729,1671627993.801,515,112043,60589
151445,12764.667087281105,1671627993.801,515,112043,60589
151446,12764.67500027648,1671627993.89,514,112058,60602
151446,12764.682913271856,1671627993.89,514,112058,60602
151447,12764.690826267231,1671627993.89,514,112047,60605
151447,12764.698739262607,1671627993.89,514,112047,60605
151448,12764.706652257983,1671627993.89,514,112088,60574
151448,12764.714565253358,1671627993.89,514,112088,60574
151449,12764.722478248734,1671627993.89,511,112086,60587
151449,12764.73039124411,1671627993.89,511,112086,60587
151450,12764.738304239485,1671627993.89,514,112016,60578
151450,12764.74621723486,1671627993.89,514,112016,60578
151451,12764.754130230236,1671627993.89,512,111985,60576
151451,12764.762043225612,1671627993.89,512,111985,60576
151452,12764.769956220987,1671627993.977,515,112054,60563
151452,12764.777869216363,1671627993.977,515,112054,60563
151453,12764.785782211738,1671627993.977,515,112020,60542
151453,12764.793695207114,1671627993.977,515,112020,60542
151454,12764.794401545896,1671627993.977,514,111975,60548
151454,12764.801232384392,1671627993.977,514,111975,60548
151455,12764.808063222888,1671627993.977,512,112035,60564
151455,12764.814894061385,1671627993.977,512,112035,60564
151456,12764.82172489988,1671627993.977,512,112006,60562
151456,12764.828555738377,1671627993.977,512,112006,60562
151457,12764.835386576873,1671627993.977,512,112004,60543
151457,12764.84221741537,1671627993.977,512,112004,60543
151458,12764.849048253865,1671627994.074,515,112037,60539
151458,12764.855879092362,1671627994.074,515,112037,60539
151459,12764.862709930858,1671627994.074,515,112047,60541
151459,12764.869540769354,1671627994.074,515,112047,60541
151460,12764.87637160785,1671627994.074,516,112008,60548
151460,12764.883202446346,1671627994.074,516,112008,60548
151461,12764.890033284843,1671627994.074,515,112044,60557
151461,12764.896864123339,1671627994.074,515,112044,60557
151462,12764.903694961835,1671627994.074,514,112041,60549
151462,12764.910525800331,1671627994.074,514,112041,60549
151463,12764.917356638827,1671627994.074,512,112080,60557
151463,12764.924187477323,1671627994.074,512,112080,60557
151464,12764.950686417002,1671627994.174,512,112055,60533
151464,12764.958307868445,1671627994.174,512,112055,60533
151465,12764.965929319887,1671627994.174,514,112092,60525
151465,12764.97355077133,1671627994.174,514,112092,60525
151466,12764.981172222773,1671627994.174,515,112056,60550
151466,12764.988793674216,1671627994.174,515,112056,60550
151467,12764.996415125659,1671627994.174,514,112083,60534
151467,12765.004036577102,1671627994.174,514,112083,60534
151468,12765.011658028545,1671627994.174,514,112125,60556
151468,12765.019279479988,1671627994.174,514,112125,60556
151469,12765.02690093143,1671627994.174,514,112104,60558
151469,12765.034522382874,1671627994.174,514,112104,60558
151470,12765.042143834316,1671627994.265,512,112110,60548
151470,12765.04976528576,1671627994.265,512,112110,60548
151471,12765.057386737202,1671627994.265,514,112160,60552
151471,12765.065008188645,1671627994.265,514,112160,60552
151472,12765.072629640088,1671627994.265,514,112151,60549
151472,12765.080251091531,1671627994.265,514,112151,60549
151473,12765.087872542974,1671627994.265,510,112172,60557
151473,12765.095493994417,1671627994.265,510,112172,60557
151474,12765.110634032493,1671627994.265,515,112179,60546
151474,12765.11782486911,1671627994.265,515,112179,60546
151475,12765.125015705727,1671627994.265,514,112187,60563
151475,12765.132206542345,1671627994.265,514,112187,60563
151476,12765.139397378962,1671627994.355,515,112201,60541
151476,12765.146588215579,1671627994.355,515,112201,60541
151477,12765.153779052196,1671627994.355,515,112213,60552
151477,12765.160969888813,1671627994.355,515,112213,60552
151478,12765.16816072543,1671627994.355,514,112168,60572
151478,12765.175351562048,1671627994.355,514,112168,60572
151479,12765.182542398665,1671627994.355,514,112182,60529
151479,12765.189733235282,1671627994.355,514,112182,60529
151480,12765.196924071899,1671627994.355,515,112216,60557
151480,12765.204114908516,1671627994.355,515,112216,60557
151481,12765.211305745133,1671627994.355,512,112253,60557
151481,12765.21849658175,1671627994.355,512,112253,60557
151482,12765.225687418368,1671627994.454,512,112262,60542
151482,12765.232878254985,1671627994.454,512,112262,60542
151483,12765.240069091602,1671627994.454,516,112205,60552
151483,12765.24725992822,1671627994.454,516,112205,60552
151484,12765.26383908943,1671627994.454,515,112149,60526
151484,12765.27137729476,1671627994.454,515,112149,60526
151485,12765.278915500092,1671627994.454,514,112066,60511
151485,12765.286453705423,1671627994.454,514,112066,60511
151486,12765.293991910754,1671627994.454,512,112018,60484
151486,12765.301530116085,1671627994.454,512,112018,60484
151487,12765.309068321416,1671627994.454,512,111963,60492
151487,12765.316606526747,1671627994.454,512,111963,60492
151488,12765.324144732078,1671627994.549,512,111858,60491
151488,12765.331682937409,1671627994.549,512,111858,60491
151489,12765.33922114274,1671627994.549,512,111858,60454
151489,12765.346759348071,1671627994.549,512,111858,60454
151490,12765.354297553402,1671627994.549,511,111822,60454
151490,12765.361835758733,1671627994.549,511,111822,60454
151491,12765.369373964064,1671627994.549,515,111863,60435
151491,12765.376912169395,1671627994.549,515,111863,60435
151492,12765.384450374726,1671627994.549,515,111774,60428
151492,12765.391988580057,1671627994.549,515,111774,60428
151493,12765.399526785388,1671627994.549,515,111808,60408
151493,12765.407064990719,1671627994.549,515,111808,60408
151494,12765.425415064054,1671627994.642,512,111779,60423
151494,12765.432855531166,1671627994.642,512,111779,60423
151495,12765.440295998278,1671627994.642,514,111744,60401
151495,12765.44773646539,1671627994.642,514,111744,60401
151496,12765.455176932503,1671627994.642,512,111737,60401
151496,12765.462617399615,1671627994.642,512,111737,60401
151497,12765.470057866727,1671627994.642,511,111795,60392
151497,12765.47749833384,1671627994.642,511,111795,60392
151498,12765.484938800952,1671627994.642,516,111699,60403
151498,12765.492379268064,1671627994.642,516,111699,60403
151499,12765.499819735176,1671627994.642,512,111764,60378
151499,12765.507260202288,1671627994.642,512,111764,60378
151500,12765.5147006694,1671627994.728,514,111753,60383
151500,12765.522141136513,1671627994.728,514,111753,60383
151501,12765.529581603625,1671627994.728,515,111742,60376
151501,12765.537022070737,1671627994.728,515,111742,60376
151502,12765.54446253785,1671627994.728,514,111669,60368
151502,12765.551903004962,1671627994.728,514,111669,60368
151503,12765.559343472074,1671627994.728,512,111619,60350
151503,12765.566783939186,1671627994.728,512,111619,60350
151504,12765.574710705587,1671627994.728,514,111717,60371
151504,12765.5814459998,1671627994.728,514,111717,60371
151505,12765.588181294013,1671627994.728,514,111677,60358
151505,12765.594916588227,1671627994.728,514,111677,60358
151506,12765.60165188244,1671627994.829,514,111664,60341
151506,12765.608387176653,1671627994.829,514,111664,60341
151507,12765.615122470866,1671627994.829,515,111644,60308
151507,12765.62185776508,1671627994.829,515,111644,60308
151508,12765.628593059293,1671627994.829,512,111664,60332
151508,12765.635328353506,1671627994.829,512,111664,60332
151509,12765.64206364772,1671627994.829,512,111702,60337
151509,12765.648798941933,1671627994.829,512,111702,60337
151510,12765.655534236146,1671627994.829,511,111666,60316
151510,12765.66226953036,1671627994.829,511,111666,60316
151511,12765.669004824573,1671627994.829,511,111639,60324
151511,12765.675740118786,1671627994.829,511,111639,60324
151512,12765.682475413,1671627994.926,512,111710,60327
151512,12765.689210707213,1671627994.926,512,111710,60327
151513,12765.695946001426,1671627994.926,512,111595,60321
151513,12765.70268129564,1671627994.926,512,111595,60321
151514,12765.737813838494,1671627994.926,512,111688,60309
151514,12765.745454841366,1671627994.926,512,111688,60309
151515,12765.753095844238,1671627994.926,512,111637,60322
151515,12765.76073684711,1671627994.926,512,111637,60322
151516,12765.768377849983,1671627994.926,514,111719,60343
151516,12765.776018852855,1671627994.926,514,111719,60343
151517,12765.783659855728,1671627994.926,514,111726,60338
151517,12765.7913008586,1671627994.926,514,111726,60338
151518,12765.798941861472,1671627995.014,512,111728,60321
151518,12765.806582864345,1671627995.014,512,111728,60321
151519,12765.814223867217,1671627995.014,511,111750,60319
151519,12765.82186487009,1671627995.014,511,111750,60319
151520,12765.829505872962,1671627995.014,511,111726,60337
151520,12765.837146875834,1671627995.014,511,111726,60337
151521,12765.844787878706,1671627995.014,511,111796,60336
151521,12765.852428881579,1671627995.014,511,111796,60336
151522,12765.860069884451,1671627995.014,514,111736,60309
151522,12765.867710887323,1671627995.014,514,111736,60309
151523,12765.875351890196,1671627995.014,515,111766,60332
151523,12765.882992893068,1671627995.014,515,111766,60332
151524,12765.889135453677,1671627995.106,514,111802,60313
151524,12765.896022898072,1671627995.106,514,111802,60313
151525,12765.902910342467,1671627995.106,514,111774,60318
151525,12765.909797786862,1671627995.106,514,111774,60318
151526,12765.916685231257,1671627995.106,512,111786,60328
151526,12765.923572675652,1671627995.106,512,111786,60328
151527,12765.930460120047,1671627995.106,512,111835,60337
151527,12765.937347564442,1671627995.106,512,111835,60337
151528,12765.944235008837,1671627995.106,511,111754,60332
151528,12765.951122453233,1671627995.106,511,111754,60332
151529,12765.958009897628,1671627995.106,514,111874,60333
151529,12765.964897342023,1671627995.106,514,111874,60333
151530,12765.971784786418,1671627995.203,514,111773,60345
151530,12765.978672230813,1671627995.203,514,111773,60345
151531,12765.985559675208,1671627995.203,514,111864,60330
151531,12765.992447119603,1671627995.203,514,111864,60330
151532,12765.999334563998,1671627995.203,514,111900,60330
151532,12766.006222008393,1671627995.203,514,111900,60330
151533,12766.013109452788,1671627995.203,515,111869,60346
151533,12766.019996897183,1671627995.203,515,111869,60346
151534,12766.04728331015,1671627995.203,512,111860,60346
151534,12766.054830870125,1671627995.203,512,111860,60346
151535,12766.0623784301,1671627995.203,511,111915,60358
151535,12766.069925990076,1671627995.203,511,111915,60358
151536,12766.07747355005,1671627995.3,512,111923,60358
151536,12766.085021110026,1671627995.3,512,111923,60358
151537,12766.092568670001,1671627995.3,511,111896,60342
151537,12766.100116229976,1671627995.3,511,111896,60342
151538,12766.107663789951,1671627995.3,514,111908,60361
151538,12766.115211349927,1671627995.3,514,111908,60361
151539,12766.122758909902,1671627995.3,514,111936,60358
151539,12766.130306469877,1671627995.3,514,111936,60358
151540,12766.137854029852,1671627995.3,514,111855,60335
151540,12766.145401589827,1671627995.3,514,111855,60335
151541,12766.152949149802,1671627995.3,515,111777,60313
151541,12766.160496709777,1671627995.3,515,111777,60313
151542,12766.168044269752,1671627995.388,512,111650,60281
151542,12766.175591829728,1671627995.388,512,111650,60281
151543,12766.183139389703,1671627995.388,512,111645,60265
151543,12766.190686949678,1671627995.388,512,111645,60265
151544,12766.205318947743,1671627995.388,512,111631,60244
151544,12766.212407463529,1671627995.388,512,111631,60244
151545,12766.219495979314,1671627995.388,514,111627,60237
151545,12766.2265844951,1671627995.388,514,111627,60237
151546,12766.233673010885,1671627995.388,514,111525,60219
151546,12766.240761526671,1671627995.388,514,111525,60219
151547,12766.247850042457,1671627995.388,512,111587,60231
151547,12766.254938558242,1671627995.388,512,111587,60231
151548,12766.262027074028,1671627995.479,514,111490,60211
151548,12766.269115589814,1671627995.479,514,111490,60211
151549,12766.2762041056,1671627995.479,512,111488,60214
151549,12766.283292621385,1671627995.479,512,111488,60214
151550,12766.29038113717,1671627995.479,514,111454,60201
151550,12766.297469652956,1671627995.479,514,111454,60201
151551,12766.304558168742,1671627995.479,512,111421,60195
151551,12766.311646684528,1671627995.479,512,111421,60195
151552,12766.318735200313,1671627995.479,514,111402,60179
151552,12766.325823716099,1671627995.479,514,111402,60179
151553,12766.332912231885,1671627995.479,514,111402,60174
151553,12766.34000074767,1671627995.479,514,111402,60174
151554,12766.354301935105,1671627995.577,515,111342,60157
151554,12766.36136002164,1671627995.577,515,111342,60157
151555,12766.368418108174,1671627995.577,514,111303,60148
151555,12766.375476194708,1671627995.577,514,111303,60148
151556,12766.382534281242,1671627995.577,512,111248,60156
151556,12766.389592367776,1671627995.577,512,111248,60156
151557,12766.39665045431,1671627995.577,512,111333,60147
151557,12766.403708540844,1671627995.577,512,111333,60147
151558,12766.410766627378,1671627995.577,512,111305,60159
151558,12766.417824713912,1671627995.577,512,111305,60159
151559,12766.424882800446,1671627995.577,512,111304,60132
151559,12766.43194088698,1671627995.577,512,111304,60132
151560,12766.438998973514,1671627995.675,512,111309,60116
151560,12766.446057060048,1671627995.675,512,111309,60116
151561,12766.453115146582,1671627995.675,512,111305,60111
151561,12766.460173233116,1671627995.675,512,111305,60111
151562,12766.46723131965,1671627995.675,512,111235,60117
151562,12766.474289406184,1671627995.675,512,111235,60117
151563,12766.481347492718,1671627995.675,512,111244,60106
151563,12766.488405579252,1671627995.675,512,111244,60106
151564,12766.518837066365,1671627995.675,511,111188,60101
151564,12766.526540577874,1671627995.675,511,111188,60101
151565,12766.534244089382,1671627995.675,512,111239,60096
151565,12766.54194760089,1671627995.675,512,111239,60096
151566,12766.549651112398,1671627995.762,511,111269,60082
151566,12766.557354623907,1671627995.762,511,111269,60082
151567,12766.565058135415,1671627995.762,511,111225,60068
151567,12766.572761646923,1671627995.762,511,111225,60068
151568,12766.580465158431,1671627995.762,512,111221,60095
151568,12766.58816866994,1671627995.762,512,111221,60095
151569,12766.595872181448,1671627995.762,512,111252,60078
151569,12766.603575692956,1671627995.762,512,111252,60078
151570,12766.611279204464,1671627995.762,512,111279,60075
151570,12766.618982715972,1671627995.762,512,111279,60075
151571,12766.62668622748,1671627995.762,511,111273,60081
151571,12766.634389738989,1671627995.762,511,111273,60081
151572,12766.642093250497,1671627995.854,514,111264,60086
151572,12766.649796762005,1671627995.854,514,111264,60086
151573,12766.657500273514,1671627995.854,512,111303,60102
151573,12766.665203785022,1671627995.854,512,111303,60102
151574,12766.668368492694,1671627995.854,512,111304,60084
151574,12766.675455927963,1671627995.854,512,111304,60084
151575,12766.682543363233,1671627995.854,512,111342,60110
151575,12766.689630798503,1671627995.854,512,111342,60110
151576,12766.696718233772,1671627995.854,511,111331,60085
151576,12766.703805669042,1671627995.854,511,111331,60085
151577,12766.710893104311,1671627995.854,512,111330,60095
151577,12766.71798053958,1671627995.854,512,111330,60095
151578,12766.72506797485,1671627995.95,514,111312,60075
151578,12766.73215541012,1671627995.95,514,111312,60075
151579,12766.73924284539,1671627995.95,512,111322,60098
151579,12766.74633028066,1671627995.95,512,111322,60098
151580,12766.753417715929,1671627995.95,512,111360,60109
151580,12766.760505151198,1671627995.95,512,111360,60109
151581,12766.767592586468,1671627995.95,512,111318,60112
151581,12766.774680021737,1671627995.95,512,111318,60112
151582,12766.781767457007,1671627995.95,511,111352,60090
151582,12766.788854892277,1671627995.95,511,111352,60090
151583,12766.795942327546,1671627995.95,512,111392,60093
151583,12766.803029762816,1671627995.95,512,111392,60093
151584,12766.82644221345,1671627996.049,511,111446,60110
151584,12766.833931296256,1671627996.049,511,111446,60110
151585,12766.841420379062,1671627996.049,512,111372,60105
151585,12766.848909461867,1671627996.049,512,111372,60105
151586,12766.856398544673,1671627996.049,515,111390,60106
151586,12766.863887627478,1671627996.049,515,111390,60106
151587,12766.871376710284,1671627996.049,512,111462,60121
151587,12766.878865793089,1671627996.049,512,111462,60121
151588,12766.886354875895,1671627996.049,511,111449,60135
151588,12766.8938439587,1671627996.049,511,111449,60135
151589,12766.901333041505,1671627996.049,512,111453,60102
151589,12766.908822124311,1671627996.049,512,111453,60102
151590,12766.916311207116,1671627996.153,511,111501,60138
151590,12766.923800289922,1671627996.153,511,111501,60138
151591,12766.931289372727,1671627996.153,514,111519,60122
151591,12766.938778455533,1671627996.153,514,111519,60122
151592,12766.946267538338,1671627996.153,514,111457,60113
151592,12766.953756621144,1671627996.153,514,111457,60113
151593,12766.96124570395,1671627996.153,514,111490,60126
151593,12766.968734786755,1671627996.153,514,111490,60126
151594,12766.995324512905,1671627996.153,514,111563,60147
151594,12767.00339977501,1671627996.153,514,111563,60147
151595,12767.011475037116,1671627996.153,514,111559,60146
151595,12767.019550299221,1671627996.153,514,111559,60146
151596,12767.027625561326,1671627996.229,514,111519,60159
151596,12767.035700823431,1671627996.229,514,111519,60159
151597,12767.043776085537,1671627996.229,512,111558,60161
151597,12767.051851347642,1671627996.229,512,111558,60161
151598,12767.059926609747,1671627996.229,511,111564,60165
151598,12767.068001871852,1671627996.229,511,111564,60165
151599,12767.076077133957,1671627996.229,511,111579,60164
151599,12767.084152396063,1671627996.229,511,111579,60164
151600,12767.092227658168,1671627996.229,512,111640,60182
151600,12767.100302920273,1671627996.229,512,111640,60182
151601,12767.108378182378,1671627996.229,512,111628,60183
151601,12767.116453444483,1671627996.229,512,111628,60183
151602,12767.124528706589,1671627996.324,515,111689,60192
151602,12767.132603968694,1671627996.324,515,111689,60192
151603,12767.140679230799,1671627996.324,512,111651,60186
151603,12767.148754492904,1671627996.324,512,111651,60186
151604,12767.135915183208,1671627996.324,514,111702,60185
151604,12767.142906035902,1671627996.324,514,111702,60185
151605,12767.149896888597,1671627996.324,511,111651,60194
151605,12767.156887741292,1671627996.324,511,111651,60194
151606,12767.163878593987,1671627996.324,512,111665,60191
151606,12767.170869446682,1671627996.324,512,111665,60191
151607,12767.177860299376,1671627996.324,511,111730,60206
151607,12767.184851152071,1671627996.324,511,111730,60206
151608,12767.191842004766,1671627996.42,511,111738,60197
151608,12767.19883285746,1671627996.42,511,111738,60197
151609,12767.205823710156,1671627996.42,511,111759,60220
151609,12767.21281456285,1671627996.42,511,111759,60220
151610,12767.219805415545,1671627996.42,515,111817,60224
151610,12767.22679626824,1671627996.42,515,111817,60224
151611,12767.233787120935,1671627996.42,514,111867,60223
151611,12767.24077797363,1671627996.42,514,111867,60223
151612,12767.247768826324,1671627996.42,515,111746,60208
151612,12767.25475967902,1671627996.42,515,111746,60208
151613,12767.261750531714,1671627996.42,512,111763,60218
151613,12767.268741384409,1671627996.42,512,111763,60218
151614,12767.296300962098,1671627996.514,511,111695,60188
151614,12767.30380474382,1671627996.514,511,111695,60188
151615,12767.311308525543,1671627996.514,514,111657,60168
151615,12767.318812307265,1671627996.514,514,111657,60168
151616,12767.326316088987,1671627996.514,512,111550,60171
151616,12767.33381987071,1671627996.514,512,111550,60171
151617,12767.341323652432,1671627996.514,514,111501,60138
151617,12767.348827434154,1671627996.514,514,111501,60138
151618,12767.356331215877,1671627996.514,515,111450,60152
151618,12767.363834997599,1671627996.514,515,111450,60152
151619,12767.371338779321,1671627996.514,514,111405,60112
151619,12767.378842561044,1671627996.514,514,111405,60112
151620,12767.386346342766,1671627996.604,514,111346,60124
151620,12767.393850124488,1671627996.604,514,111346,60124
151621,12767.40135390621,1671627996.604,512,111317,60095
151621,12767.408857687933,1671627996.604,512,111317,60095
151622,12767.416361469655,1671627996.604,510,111324,60097
151622,12767.423865251378,1671627996.604,510,111324,60097
151623,12767.4313690331,1671627996.604,511,111279,60071
151623,12767.438872814822,1671627996.604,511,111279,60071
151624,12767.449332400703,1671627996.604,512,111234,60095
151624,12767.4563922562,1671627996.604,512,111234,60095
151625,12767.463452111695,1671627996.604,514,111234,60062
151625,12767.47051196719,1671627996.604,514,111234,60062
151626,12767.477571822687,1671627996.696,512,111219,60060
151626,12767.484631678182,1671627996.696,512,111219,60060
151627,12767.491691533678,1671627996.696,514,111222,60045
151627,12767.498751389174,1671627996.696,514,111222,60045
151628,12767.50581124467,1671627996.696,511,111229,60032
151628,12767.512871100165,1671627996.696,511,111229,60032
151629,12767.519930955661,1671627996.696,512,111256,60038
151629,12767.526990811157,1671627996.696,512,111256,60038
151630,12767.534050666653,1671627996.696,511,111141,60044
151630,12767.541110522148,1671627996.696,511,111141,60044
151631,12767.548170377644,1671627996.696,512,111188,60025
151631,12767.55523023314,1671627996.696,512,111188,60025
151632,12767.562290088636,1671627996.795,512,111126,60028
151632,12767.569349944131,1671627996.795,512,111126,60028
151633,12767.576409799627,1671627996.795,514,111126,60030
151633,12767.583469655123,1671627996.795,514,111126,60030
151634,12767.605204303534,1671627996.795,514,111128,60021
151634,12767.612813062327,1671627996.795,514,111128,60021
151635,12767.62042182112,1671627996.795,514,111163,60016
151635,12767.628030579914,1671627996.795,514,111163,60016
151636,12767.635639338707,1671627996.795,512,111076,60004
151636,12767.6432480975,1671627996.795,512,111076,60004
151637,12767.650856856293,1671627996.795,512,111133,60000
151637,12767.658465615086,1671627996.795,512,111133,60000
151638,12767.66607437388,1671627996.888,511,111099,59989
151638,12767.673683132673,1671627996.888,511,111099,59989
151639,12767.681291891466,1671627996.888,512,111054,59983
151639,12767.688900650259,1671627996.888,512,111054,59983
151640,12767.696509409052,1671627996.888,512,111116,60002
151640,12767.704118167845,1671627996.888,512,111116,60002
151641,12767.711726926638,1671627996.888,512,111102,59993
151641,12767.719335685431,1671627996.888,512,111102,59993
151642,12767.726944444225,1671627996.888,514,111108,59984
151642,12767.734553203018,1671627996.888,514,111108,59984
151643,12767.74216196181,1671627996.888,512,111161,59977
151643,12767.749770720604,1671627996.888,512,111161,59977
151644,12767.764212001963,1671627996.98,511,111127,60004
151644,12767.771475261277,1671627996.98,511,111127,60004
151645,12767.778738520592,1671627996.98,512,111093,59994
151645,12767.786001779907,1671627996.98,512,111093,59994
151646,12767.793265039221,1671627996.98,511,111171,59995
151646,12767.800528298536,1671627996.98,511,111171,59995
151647,12767.80779155785,1671627996.98,512,111134,59989
151647,12767.815054817165,1671627996.98,512,111134,59989
151648,12767.82231807648,1671627996.98,512,111173,60009
151648,12767.829581335795,1671627996.98,512,111173,60009
151649,12767.83684459511,1671627996.98,515,111155,59986
151649,12767.844107854424,1671627996.98,515,111155,59986
151650,12767.851371113738,1671627997.073,512,111179,59993
151650,12767.858634373053,1671627997.073,512,111179,59993
151651,12767.865897632368,1671627997.073,512,111134,59999
151651,12767.873160891682,1671627997.073,512,111134,59999
151652,12767.880424150997,1671627997.073,511,111171,60007
151652,12767.887687410312,1671627997.073,511,111171,60007
151653,12767.894950669626,1671627997.073,511,111199,59994
151653,12767.902213928941,1671627997.073,511,111199,59994
151654,12767.918225064768,1671627997.073,512,111165,59994
151654,12767.92551744186,1671627997.073,512,111165,59994
151655,12767.93280981895,1671627997.073,514,111147,60010
151655,12767.940102196042,1671627997.073,514,111147,60010
151656,12767.947394573133,1671627997.174,515,111215,60024
151656,12767.954686950225,1671627997.174,515,111215,60024
151657,12767.961979327316,1671627997.174,514,111184,60017
151657,12767.969271704407,1671627997.174,514,111184,60017
151658,12767.976564081499,1671627997.174,514,111233,59994
151658,12767.98385645859,1671627997.174,514,111233,59994
151659,12767.991148835681,1671627997.174,512,111267,60023
151659,12767.998441212772,1671627997.174,512,111267,60023
151660,12768.005733589864,1671627997.174,512,111248,60031
151660,12768.013025966955,1671627997.174,512,111248,60031
151661,12768.020318344046,1671627997.174,510,111248,60006
151661,12768.027610721138,1671627997.174,510,111248,60006
151662,12768.034903098229,1671627997.267,512,111271,60025
151662,12768.04219547532,1671627997.267,512,111271,60025
151663,12768.049487852411,1671627997.267,512,111254,60036
151663,12768.056780229503,1671627997.267,512,111254,60036
151664,12768.081300910084,1671627997.267,512,111331,60029
151664,12768.088761152532,1671627997.267,512,111331,60029
151665,12768.09622139498,1671627997.267,512,111292,60043
151665,12768.103681637429,1671627997.267,512,111292,60043
151666,12768.111141879877,1671627997.267,512,111314,60030
151666,12768.118602122326,1671627997.267,512,111314,60030
151667,12768.126062364774,1671627997.267,512,111376,60043
151667,12768.133522607222,1671627997.267,512,111376,60043
151668,12768.14098284967,1671627997.352,511,111331,60042
151668,12768.14844309212,1671627997.352,511,111331,60042
151669,12768.155903334567,1671627997.352,512,111333,60064
151669,12768.163363577016,1671627997.352,512,111333,60064
151670,12768.170823819464,1671627997.352,511,111417,60073
151670,12768.178284061913,1671627997.352,511,111417,60073
151671,12768.185744304361,1671627997.352,511,111427,60067
151671,12768.19320454681,1671627997.352,511,111427,60067
151672,12768.200664789258,1671627997.352,515,111464,60082
151672,12768.208125031706,1671627997.352,515,111464,60082
151673,12768.215585274154,1671627997.352,516,111444,60078
151673,12768.223045516603,1671627997.352,516,111444,60078
151674,12768.227290275232,1671627997.449,512,111428,60095
151674,12768.233928158552,1671627997.449,512,111428,60095
151675,12768.240566041872,1671627997.449,512,111456,60093
151675,12768.247203925192,1671627997.449,512,111456,60093
151676,12768.253841808511,1671627997.449,514,111454,60109
151676,12768.260479691831,1671627997.449,514,111454,60109
151677,12768.267117575151,1671627997.449,511,111452,60108
151677,12768.273755458471,1671627997.449,511,111452,60108
151678,12768.28039334179,1671627997.449,512,111424,60099
151678,12768.28703122511,1671627997.449,512,111424,60099
151679,12768.29366910843,1671627997.449,514,111522,60087
151679,12768.30030699175,1671627997.449,514,111522,60087
151680,12768.30694487507,1671627997.552,512,111539,60119
151680,12768.31358275839,1671627997.552,512,111539,60119
151681,12768.32022064171,1671627997.552,515,111576,60123
151681,12768.32685852503,1671627997.552,515,111576,60123
151682,12768.33349640835,1671627997.552,514,111578,60118
151682,12768.34013429167,1671627997.552,514,111578,60118
151683,12768.34677217499,1671627997.552,514,111504,60147
151683,12768.35341005831,1671627997.552,514,111504,60147
151684,12768.394537205586,1671627997.552,512,111591,60130
151684,12768.402542763983,1671627997.552,512,111591,60130
151685,12768.41054832238,1671627997.552,512,111633,60132
151685,12768.418553880776,1671627997.552,512,111633,60132
151686,12768.426559439173,1671627997.638,514,111688,60149
151686,12768.43456499757,1671627997.638,514,111688,60149
151687,12768.442570555966,1671627997.638,512,111642,60165
151687,12768.450576114363,1671627997.638,512,111642,60165
151688,12768.45858167276,1671627997.638,512,111669,60166
151688,12768.466587231156,1671627997.638,512,111669,60166
151689,12768.474592789553,1671627997.638,514,111671,60168
151689,12768.48259834795,1671627997.638,514,111671,60168
151690,12768.490603906346,1671627997.638,514,111709,60170
151690,12768.498609464743,1671627997.638,514,111709,60170
151691,12768.50661502314,1671627997.638,511,111700,60186
151691,12768.514620581536,1671627997.638,511,111700,60186
151692,12768.522626139933,1671627997.726,512,111587,60172
151692,12768.53063169833,1671627997.726,512,111587,60172
151693,12768.538637256726,1671627997.726,511,111634,60133
151693,12768.546642815123,1671627997.726,511,111634,60133
151694,12768.542936159374,1671627997.726,512,111496,60133
151694,12768.549787693059,1671627997.726,512,111496,60133
151695,12768.556639226743,1671627997.726,515,111450,60106
151695,12768.563490760427,1671627997.726,515,111450,60106
151696,12768.570342294111,1671627997.726,514,111438,60089
151696,12768.577193827796,1671627997.726,514,111438,60089
151697,12768.58404536148,1671627997.726,512,111385,60091
151697,12768.590896895164,1671627997.726,512,111385,60091
151698,12768.597748428849,1671627997.825,511,111311,60071
151698,12768.604599962533,1671627997.825,511,111311,60071
151699,12768.611451496217,1671627997.825,511,111286,60067
151699,12768.618303029902,1671627997.825,511,111286,60067
151700,12768.625154563586,1671627997.825,514,111230,60060
151700,12768.63200609727,1671627997.825,514,111230,60060
151701,12768.638857630955,1671627997.825,510,111245,60049
151701,12768.645709164639,1671627997.825,510,111245,60049
151702,12768.652560698323,1671627997.825,512,111176,60045
151702,12768.659412232008,1671627997.825,512,111176,60045
151703,12768.666263765692,1671627997.825,514,111191,60045
151703,12768.673115299376,1671627997.825,514,111191,60045
151704,12768.701626780914,1671627997.922,514,111188,60049
151704,12768.70932943514,1671627997.922,514,111188,60049
151705,12768.717032089366,1671627997.922,514,111170,59998
151705,12768.724734743591,1671627997.922,514,111170,59998
151706,12768.732437397817,1671627997.922,512,111172,60010
151706,12768.740140052043,1671627997.922,512,111172,60010
151707,12768.747842706269,1671627997.922,514,111206,60021
151707,12768.755545360495,1671627997.922,514,111206,60021
151708,12768.76324801472,1671627997.922,512,111109,59998
151708,12768.770950668946,1671627997.922,512,111109,59998
151709,12768.778653323172,1671627997.922,511,111153,59999
151709,12768.786355977398,1671627997.922,511,111153,59999
151710,12768.794058631624,1671627998.013,511,111162,59992
151710,12768.80176128585,1671627998.013,511,111162,59992
151711,12768.809463940075,1671627998.013,514,111098,59979
151711,12768.817166594301,1671627998.013,514,111098,59979
151712,12768.824869248527,1671627998.013,512,111096,59983
151712,12768.832571902753,1671627998.013,512,111096,59983
151713,12768.840274556978,1671627998.013,514,111155,59990
151713,12768.847977211204,1671627998.013,514,111155,59990
151714,12768.858424116044,1671627998.013,514,111069,59979
151714,12768.865593151266,1671627998.013,514,111069,59979
151715,12768.872762186487,1671627998.013,511,111105,59978
151715,12768.879931221709,1671627998.013,511,111105,59978
151716,12768.88710025693,1671627998.117,514,111068,59979
151716,12768.894269292152,1671627998.117,514,111068,59979
151717,12768.901438327373,1671627998.117,511,111029,59986
151717,12768.908607362595,1671627998.117,511,111029,59986
151718,12768.915776397816,1671627998.117,514,111063,59976
151718,12768.922945433038,1671627998.117,514,111063,59976
151719,12768.93011446826,1671627998.117,514,111120,59963
151719,12768.937283503481,1671627998.117,514,111120,59963
151720,12768.944452538703,1671627998.117,515,111080,59962
151720,12768.951621573924,1671627998.117,515,111080,59962
151721,12768.958790609146,1671627998.117,514,111133,59965
151721,12768.965959644367,1671627998.117,514,111133,59965
151722,12768.973128679589,1671627998.202,514,111113,59969
151722,12768.98029771481,1671627998.202,514,111113,59969
151723,12768.987466750032,1671627998.202,514,111098,59959
151723,12768.994635785253,1671627998.202,514,111098,59959
151724,12769.021061217542,1671627998.202,512,111103,59978
151724,12769.028165967324,1671627998.202,512,111103,59978
151725,12769.035270717106,1671627998.202,514,111127,59959
151725,12769.042375466888,1671627998.202,514,111127,59959
151726,12769.04948021667,1671627998.202,514,111136,59952
151726,12769.056584966453,1671627998.202,514,111136,59952
151727,12769.063689716235,1671627998.202,515,111200,59967
151727,12769.070794466017,1671627998.202,515,111200,59967
151728,12769.0778992158,1671627998.295,515,111129,59963
151728,12769.085003965582,1671627998.295,515,111129,59963
151729,12769.092108715364,1671627998.295,514,111170,59961
151729,12769.099213465146,1671627998.295,514,111170,59961
151730,12769.106318214928,1671627998.295,512,111163,59977
151730,12769.11342296471,1671627998.295,512,111163,59977
151731,12769.120527714493,1671627998.295,514,111118,59981
151731,12769.127632464275,1671627998.295,514,111118,59981
151732,12769.134737214057,1671627998.295,511,111138,59981
151732,12769.14184196384,1671627998.295,511,111138,59981
151733,12769.148946713622,1671627998.295,511,111193,59999
151733,12769.156051463404,1671627998.295,511,111193,59999
151734,12769.171105728472,1671627998.39,512,111143,59974
151734,12769.17836251634,1671627998.39,512,111143,59974
151735,12769.18561930421,1671627998.39,516,111190,59984
151735,12769.192876092078,1671627998.39,516,111190,59984
151736,12769.200132879947,1671627998.39,516,111228,60001
151736,12769.207389667816,1671627998.39,516,111228,60001
151737,12769.214646455684,1671627998.39,515,111226,59993
151737,12769.221903243553,1671627998.39,515,111226,59993
151738,12769.229160031422,1671627998.39,514,111248,59988
151738,12769.23641681929,1671627998.39,514,111248,59988
151739,12769.24367360716,1671627998.39,512,111276,60009
151739,12769.250930395028,1671627998.39,512,111276,60009
151740,12769.258187182897,1671627998.485,515,111298,59997
151740,12769.265443970766,1671627998.485,515,111298,59997
151741,12769.272700758635,1671627998.485,512,111312,60025
151741,12769.279957546503,1671627998.485,512,111312,60025
151742,12769.287214334372,1671627998.485,514,111249,60016
151742,12769.29447112224,1671627998.485,514,111249,60016
151743,12769.30172791011,1671627998.485,515,111260,60017
151743,12769.308984697978,1671627998.485,515,111260,60017
151744,12769.32934281415,1671627998.485,514,111339,60037
151744,12769.336756458622,1671627998.485,514,111339,60037
151745,12769.344170103095,1671627998.485,515,111328,60025
151745,12769.351583747568,1671627998.485,515,111328,60025
151746,12769.35899739204,1671627998.589,515,111291,60044
151746,12769.366411036513,1671627998.589,515,111291,60044
151747,12769.373824680986,1671627998.589,514,111312,60045
151747,12769.381238325459,1671627998.589,514,111312,60045
151748,12769.388651969932,1671627998.589,514,111377,60058
151748,12769.396065614405,1671627998.589,514,111377,60058
151749,12769.403479258877,1671627998.589,514,111372,60055
151749,12769.41089290335,1671627998.589,514,111372,60055
151750,12769.418306547823,1671627998.589,515,111408,60086
151750,12769.425720192296,1671627998.589,515,111408,60086
151751,12769.433133836768,1671627998.589,514,111372,60056
151751,12769.440547481241,1671627998.589,514,111372,60056
151752,12769.447961125714,1671627998.675,515,111395,60058
151752,12769.455374770187,1671627998.675,515,111395,60058
151753,12769.46278841466,1671627998.675,515,111443,60083
151753,12769.470202059132,1671627998.675,515,111443,60083
151754,12769.493529426729,1671627998.675,515,111417,60093
151754,12769.500685772175,1671627998.675,515,111417,60093
151755,12769.50784211762,1671627998.675,512,111480,60072
151755,12769.514998463066,1671627998.675,512,111480,60072
151756,12769.522154808512,1671627998.675,512,111490,60085
151756,12769.529311153958,1671627998.675,512,111490,60085
151757,12769.536467499403,1671627998.675,514,111444,60073
151757,12769.54362384485,1671627998.675,514,111444,60073
151758,12769.550780190295,1671627998.764,514,111486,60108
151758,12769.55793653574,1671627998.764,514,111486,60108
151759,12769.565092881187,1671627998.764,515,111540,60092
151759,12769.572249226632,1671627998.764,515,111540,60092
151760,12769.579405572078,1671627998.764,514,111562,60116
151760,12769.586561917524,1671627998.764,514,111562,60116
151761,12769.59371826297,1671627998.764,512,111501,60092
151761,12769.600874608415,1671627998.764,512,111501,60092
151762,12769.608030953861,1671627998.764,512,111577,60118
151762,12769.615187299307,1671627998.764,512,111577,60118
151763,12769.622343644753,1671627998.764,515,111535,60120
151763,12769.629499990198,1671627998.764,515,111535,60120
151764,12769.639800302075,1671627998.867,512,111599,60134
151764,12769.646760597181,1671627998.867,512,111599,60134
151765,12769.653720892287,1671627998.867,514,111587,60126
151765,12769.660681187393,1671627998.867,514,111587,60126
151766,12769.6676414825,1671627998.867,515,111655,60129
151766,12769.674601777606,1671627998.867,515,111655,60129
151767,12769.681562072712,1671627998.867,514,111525,60117
151767,12769.688522367818,1671627998.867,514,111525,60117
151768,12769.695482662924,1671627998.867,514,111549,60109
151768,12769.70244295803,1671627998.867,514,111549,60109
151769,12769.709403253137,1671627998.867,514,111436,60077
151769,12769.716363548243,1671627998.867,514,111436,60077
151770,12769.72332384335,1671627998.948,515,111400,60061
151770,12769.730284138455,1671627998.948,515,111400,60061
151771,12769.737244433562,1671627998.948,512,111341,60044
151771,12769.744204728668,1671627998.948,512,111341,60044
151772,12769.751165023774,1671627998.948,512,111316,60037
151772,12769.75812531888,1671627998.948,512,111316,60037
151773,12769.765085613986,1671627998.948,514,111183,60046
151773,12769.772045909092,1671627998.948,514,111183,60046
151774,12769.796309024532,1671627998.948,515,111209,60041
151774,12769.802739756085,1671627998.948,515,111209,60041
151775,12769.809170487639,1671627998.948,512,111190,60037
151775,12769.815601219192,1671627998.948,512,111190,60037
151776,12769.822031950745,1671627999.048,514,111240,60030
151776,12769.828462682299,1671627999.048,514,111240,60030
151777,12769.834893413852,1671627999.048,515,111146,60038
151777,12769.841324145405,1671627999.048,515,111146,60038
151778,12769.847754876959,1671627999.048,512,111168,60013
151778,12769.854185608512,1671627999.048,512,111168,60013
151779,12769.860616340065,1671627999.048,511,111175,60006
151779,12769.867047071619,1671627999.048,511,111175,60006
151780,12769.873477803172,1671627999.048,514,111149,59987
151780,12769.879908534725,1671627999.048,514,111149,59987
151781,12769.886339266279,1671627999.048,512,111078,59997
151781,12769.892769997832,1671627999.048,512,111078,59997
151782,12769.899200729385,1671627999.139,514,111111,60012
151782,12769.905631460939,1671627999.139,514,111111,60012
151783,12769.912062192492,1671627999.139,512,111056,59993
151783,12769.918492924045,1671627999.139,512,111056,59993
151784,12769.954113972391,1671627999.139,512,111121,59978
151784,12769.961432956075,1671627999.139,512,111121,59978
151785,12769.96875193976,1671627999.139,514,111138,59985
151785,12769.976070923443,1671627999.139,514,111138,59985
151786,12769.983389907127,1671627999.139,511,111095,59963
151786,12769.990708890811,1671627999.139,511,111095,59963
151787,12769.998027874495,1671627999.139,512,111046,59980
151787,12770.00534685818,1671627999.139,512,111046,59980
151788,12770.012665841863,1671627999.228,511,111094,59965
151788,12770.019984825547,1671627999.228,511,111094,59965
151789,12770.027303809231,1671627999.228,514,111057,59990
151789,12770.034622792915,1671627999.228,514,111057,59990
151790,12770.041941776599,1671627999.228,515,111093,59955
151790,12770.049260760283,1671627999.228,515,111093,59955
151791,12770.056579743967,1671627999.228,514,111090,59962
151791,12770.06389872765,1671627999.228,514,111090,59962
151792,12770.071217711335,1671627999.228,515,111034,59953
151792,12770.078536695019,1671627999.228,515,111034,59953
151793,12770.085855678703,1671627999.228,512,111045,59949
151793,12770.093174662386,1671627999.228,512,111045,59949
151794,12770.103560876641,1671627999.327,515,111105,59948
151794,12770.110521489296,1671627999.327,515,111105,59948
151795,12770.11748210195,1671627999.327,512,111045,59941
151795,12770.124442714605,1671627999.327,512,111045,59941
151796,12770.13140332726,1671627999.327,512,111055,59943
151796,12770.138363939914,1671627999.327,512,111055,59943
151797,12770.145324552568,1671627999.327,514,111116,59951
151797,12770.152285165223,1671627999.327,514,111116,59951
151798,12770.159245777877,1671627999.327,514,111075,59949
151798,12770.166206390531,1671627999.327,514,111075,59949
151799,12770.173167003186,1671627999.327,514,111077,59959
151799,12770.18012761584,1671627999.327,514,111077,59959
151800,12770.187088228495,1671627999.425,514,111077,59929
151800,12770.19404884115,1671627999.425,514,111077,59929
151801,12770.201009453804,1671627999.425,512,111057,59957
151801,12770.207970066458,1671627999.425,512,111057,59957
151802,12770.214930679113,1671627999.425,512,111147,59958
151802,12770.221891291767,1671627999.425,512,111147,59958
151803,12770.228851904421,1671627999.425,511,111098,59947
151803,12770.235812517076,1671627999.425,511,111098,59947
151804,12770.269054273722,1671627999.425,512,111113,59955
151804,12770.276756398036,1671627999.425,512,111113,59955
151805,12770.28445852235,1671627999.425,514,111129,59946
151805,12770.292160646664,1671627999.425,514,111129,59946
151806,12770.299862770979,1671627999.519,514,111111,59987
151806,12770.307564895293,1671627999.519,514,111111,59987
151807,12770.315267019607,1671627999.519,512,111173,59967
151807,12770.322969143921,1671627999.519,512,111173,59967
151808,12770.330671268235,1671627999.519,514,111170,59952
151808,12770.33837339255,1671627999.519,514,111170,59952
151809,12770.346075516863,1671627999.519,514,111147,59970
151809,12770.353777641178,1671627999.519,514,111147,59970
151810,12770.361479765492,1671627999.519,512,111187,59950
151810,12770.369181889806,1671627999.519,512,111187,59950
151811,12770.37688401412,1671627999.519,512,111166,59971
151811,12770.384586138434,1671627999.519,512,111166,59971
151812,12770.392288262748,1671627999.604,512,111142,59974
151812,12770.399990387063,1671627999.604,512,111142,59974
151813,12770.407692511377,1671627999.604,514,111215,59962
151813,12770.415394635691,1671627999.604,514,111215,59962
151814,12770.422781033676,1671627999.604,514,111141,59960
151814,12770.429582340734,1671627999.604,514,111141,59960
151815,12770.436383647791,1671627999.604,514,111119,59993
151815,12770.44318495485,1671627999.604,514,111119,59993
151816,12770.449986261907,1671627999.604,515,111199,59980
151816,12770.456787568965,1671627999.604,515,111199,59980
151817,12770.463588876022,1671627999.604,514,111251,59971
151817,12770.47039018308,1671627999.604,514,111251,59971
151818,12770.477191490138,1671627999.702,515,111203,60000
151818,12770.483992797195,1671627999.702,515,111203,60000
151819,12770.490794104253,1671627999.702,514,111233,59995
151819,12770.49759541131,1671627999.702,514,111233,59995
151820,12770.504396718368,1671627999.702,514,111221,59994
151820,12770.511198025426,1671627999.702,514,111221,59994
151821,12770.517999332484,1671627999.702,512,111248,59983
151821,12770.524800639541,1671627999.702,512,111248,59983
151822,12770.531601946599,1671627999.702,514,111248,60008
151822,12770.538403253657,1671627999.702,514,111248,60008
151823,12770.545204560714,1671627999.702,514,111288,60008
151823,12770.552005867772,1671627999.702,514,111288,60008
151824,12770.578291007394,1671627999.799,514,111330,60014
151824,12770.585966540179,1671627999.799,514,111330,60014
151825,12770.593642072963,1671627999.799,514,111297,60034
151825,12770.601317605748,1671627999.799,514,111297,60034
151826,12770.608993138532,1671627999.799,512,111333,60032
151826,12770.616668671317,1671627999.799,512,111333,60032
151827,12770.624344204101,1671627999.799,511,111320,60019
151827,12770.632019736886,1671627999.799,511,111320,60019
151828,12770.63969526967,1671627999.799,512,111314,60000
151828,12770.647370802455,1671627999.799,512,111314,60000
151829,12770.65504633524,1671627999.799,514,111408,60031
151829,12770.662721868024,1671627999.799,514,111408,60031
151830,12770.670397400809,1671627999.891,512,111292,60009
151830,12770.678072933593,1671627999.891,512,111292,60009
151831,12770.685748466378,1671627999.891,511,111271,60032
151831,12770.693423999162,1671627999.891,511,111271,60032
151832,12770.701099531947,1671627999.891,511,111208,59984
151832,12770.708775064732,1671627999.891,511,111208,59984
151833,12770.716450597516,1671627999.891,511,111156,59980
151833,12770.7241261303,1671627999.891,511,111156,59980
151834,12770.73612934104,1671627999.891,511,111025,59967
151834,12770.743382576662,1671627999.891,511,111025,59967
151835,12770.750635812285,1671627999.891,512,111064,59954
151835,12770.757889047907,1671627999.891,512,111064,59954
151836,12770.76514228353,1671627999.985,512,111053,59929
151836,12770.772395519152,1671627999.985,512,111053,59929
151837,12770.779648754775,1671627999.985,512,110975,59941
151837,12770.786901990397,1671627999.985,512,110975,59941
151838,12770.79415522602,1671627999.985,514,110957,59924
151838,12770.801408461642,1671627999.985,514,110957,59924
151839,12770.808661697265,1671627999.985,512,110967,59898
151839,12770.815914932888,1671627999.985,512,110967,59898
151840,12770.82316816851,1671627999.985,512,110963,59906
151840,12770.830421404133,1671627999.985,512,110963,59906
151841,12770.837674639755,1671627999.985,512,110897,59895
151841,12770.844927875378,1671627999.985,512,110897,59895
151842,12770.852181111,1671628000.074,511,110846,59887
151842,12770.859434346623,1671628000.074,511,110846,59887
151843,12770.866687582246,1671628000.074,514,110826,59883
151843,12770.873940817868,1671628000.074,514,110826,59883
151844,12770.890528921771,1671628000.074,511,110824,59879
151844,12770.897608356929,1671628000.074,511,110824,59879
151845,12770.904687792086,1671628000.074,512,110881,59857
151845,12770.911767227244,1671628000.074,512,110881,59857
151846,12770.918846662402,1671628000.074,514,110787,59849
151846,12770.92592609756,1671628000.074,514,110787,59849
151847,12770.933005532717,1671628000.074,514,110850,59864
151847,12770.940084967875,1671628000.074,514,110850,59864
151848,12770.947164403033,1671628000.172,511,110801,59836
151848,12770.95424383819,1671628000.172,511,110801,59836
151849,12770.961323273348,1671628000.172,511,110780,59859
151849,12770.968402708506,1671628000.172,511,110780,59859
151850,12770.975482143664,1671628000.172,511,110774,59843
151850,12770.982561578821,1671628000.172,511,110774,59843
151851,12770.989641013979,1671628000.172,511,110761,59841
151851,12770.996720449137,1671628000.172,511,110761,59841
151852,12771.003799884294,1671628000.172,511,110779,59826
151852,12771.010879319452,1671628000.172,511,110779,59826
151853,12771.01795875461,1671628000.172,514,110726,59800
151853,12771.025038189768,1671628000.172,514,110726,59800
151854,12771.048611354538,1671628000.266,512,110793,59825
151854,12771.056256494343,1671628000.266,512,110793,59825
151855,12771.063901634148,1671628000.266,512,110737,59823
151855,12771.071546773954,1671628000.266,512,110737,59823
151856,12771.07919191376,1671628000.266,514,110727,59820
151856,12771.086837053565,1671628000.266,514,110727,59820
151857,12771.09448219337,1671628000.266,511,110677,59805
151857,12771.102127333175,1671628000.266,511,110677,59805
151858,12771.10977247298,1671628000.266,510,110688,59803
151858,12771.117417612786,1671628000.266,510,110688,59803
151859,12771.125062752591,1671628000.266,514,110705,59818
151859,12771.132707892397,1671628000.266,514,110705,59818
151860,12771.140353032202,1671628000.353,514,110730,59800
151860,12771.147998172008,1671628000.353,514,110730,59800
151861,12771.155643311813,1671628000.353,512,110794,59789
151861,12771.163288451618,1671628000.353,512,110794,59789
151862,12771.170933591424,1671628000.353,512,110754,59803
151862,12771.17857873123,1671628000.353,512,110754,59803
151863,12771.186223871035,1671628000.353,514,110793,59802
151863,12771.19386901084,1671628000.353,514,110793,59802
151864,12771.199460059974,1671628000.353,512,110797,59809
151864,12771.206344575196,1671628000.353,512,110797,59809
151865,12771.213229090417,1671628000.353,512,110759,59799
151865,12771.22011360564,1671628000.353,512,110759,59799
151866,12771.226998120861,1671628000.461,512,110748,59811
151866,12771.233882636083,1671628000.461,512,110748,59811
151867,12771.240767151305,1671628000.461,512,110813,59798
151867,12771.247651666527,1671628000.461,512,110813,59798
151868,12771.254536181748,1671628000.461,514,110743,59805
151868,12771.26142069697,1671628000.461,514,110743,59805
151869,12771.268305212192,1671628000.461,512,110790,59807
151869,12771.275189727414,1671628000.461,512,110790,59807
151870,12771.282074242636,1671628000.461,514,110779,59818
151870,12771.288958757857,1671628000.461,514,110779,59818
151871,12771.29584327308,1671628000.461,514,110828,59815
151871,12771.302727788301,1671628000.461,514,110828,59815
151872,12771.309612303523,1671628000.552,512,110868,59816
151872,12771.316496818745,1671628000.552,512,110868,59816
151873,12771.323381333967,1671628000.552,512,110853,59839
151873,12771.330265849188,1671628000.552,512,110853,59839
151874,12771.367591795051,1671628000.552,510,110886,59842
151874,12771.375061900868,1671628000.552,510,110886,59842
151875,12771.382532006684,1671628000.552,511,110852,59841
151875,12771.390002112501,1671628000.552,511,110852,59841
151876,12771.397472218317,1671628000.552,512,110821,59849
151876,12771.404942324134,1671628000.552,512,110821,59849
151877,12771.41241242995,1671628000.552,514,110849,59836
151877,12771.419882535767,1671628000.552,514,110849,59836
151878,12771.427352641584,1671628000.639,514,110865,59840
151878,12771.4348227474,1671628000.639,514,110865,59840
151879,12771.442292853217,1671628000.639,511,110910,59828
151879,12771.449762959033,1671628000.639,511,110910,59828
151880,12771.45723306485,1671628000.639,514,110871,59850
151880,12771.464703170666,1671628000.639,514,110871,59850
151881,12771.472173276483,1671628000.639,514,110926,59860
151881,12771.4796433823,1671628000.639,514,110926,59860
151882,12771.487113488116,1671628000.639,512,110941,59857
151882,12771.494583593932,1671628000.639,512,110941,59857
151883,12771.502053699749,1671628000.639,512,110948,59866
151883,12771.509523805566,1671628000.639,512,110948,59866
151884,12771.514717882148,1671628000.729,512,110951,59872
151884,12771.52157734019,1671628000.729,512,110951,59872
151885,12771.528436798233,1671628000.729,514,110958,59862
151885,12771.535296256276,1671628000.729,514,110958,59862
151886,12771.542155714318,1671628000.729,512,111016,59870
151886,12771.54901517236,1671628000.729,512,111016,59870
151887,12771.555874630403,1671628000.729,514,111021,59895
151887,12771.562734088446,1671628000.729,514,111021,59895
151888,12771.569593546488,1671628000.729,512,111021,59888
151888,12771.57645300453,1671628000.729,512,111021,59888
151889,12771.583312462573,1671628000.729,511,111052,59893
151889,12771.590171920616,1671628000.729,511,111052,59893
151890,12771.597031378658,1671628000.824,512,111079,59888
151890,12771.6038908367,1671628000.824,512,111079,59888
151891,12771.610750294743,1671628000.824,515,111037,59879
151891,12771.617609752786,1671628000.824,515,111037,59879
151892,12771.624469210828,1671628000.824,512,111079,59893
151892,12771.631328668871,1671628000.824,512,111079,59893
151893,12771.638188126914,1671628000.824,512,111034,59894
151893,12771.645047584956,1671628000.824,512,111034,59894
151894,12771.668497183746,1671628000.824,512,111083,59916
151894,12771.675910222111,1671628000.824,512,111083,59916
151895,12771.683323260477,1671628000.824,512,111111,59905
151895,12771.690736298842,1671628000.824,512,111111,59905
151896,12771.698149337208,1671628000.923,512,111101,59918
151896,12771.705562375573,1671628000.923,512,111101,59918
151897,12771.712975413939,1671628000.923,512,111114,59901
151897,12771.720388452304,1671628000.923,512,111114,59901
151898,12771.72780149067,1671628000.923,511,111086,59915
151898,12771.735214529035,1671628000.923,511,111086,59915
151899,12771.7426275674,1671628000.923,511,111024,59888
151899,12771.750040605766,1671628000.923,511,111024,59888
151900,12771.757453644132,1671628000.923,511,110930,59852
151900,12771.764866682497,1671628000.923,511,110930,59852
151901,12771.772279720863,1671628000.923,512,110860,59856
151901,12771.779692759228,1671628000.923,512,110860,59856
151902,12771.787105797594,1671628001.012,512,110760,59832
151902,12771.794518835959,1671628001.012,512,110760,59832
151903,12771.801931874325,1671628001.012,514,110747,59823
151903,12771.80934491269,1671628001.012,514,110747,59823
151904,12771.828599740378,1671628001.012,512,110673,59791
151904,12771.835741725848,1671628001.012,512,110673,59791
151905,12771.842883711319,1671628001.012,512,110664,59796
151905,12771.850025696789,1671628001.012,512,110664,59796
151906,12771.85716768226,1671628001.012,512,110624,59784
151906,12771.86430966773,1671628001.012,512,110624,59784
151907,12771.8714516532,1671628001.012,514,110628,59775
151907,12771.87859363867,1671628001.012,514,110628,59775
151908,12771.88573562414,1671628001.105,512,110552,59759
151908,12771.89287760961,1671628001.105,512,110552,59759
151909,12771.900019595081,1671628001.105,511,110588,59757
151909,12771.907161580551,1671628001.105,511,110588,59757
151910,12771.914303566022,1671628001.105,512,110507,59755
151910,12771.921445551492,1671628001.105,512,110507,59755
151911,12771.928587536962,1671628001.105,510,110439,59743
151911,12771.935729522433,1671628001.105,510,110439,59743
151912,12771.942871507903,1671628001.105,511,110450,59733
151912,12771.950013493373,1671628001.105,511,110450,59733
151913,12771.957155478844,1671628001.105,512,110451,59725
151913,12771.964297464314,1671628001.105,512,110451,59725
151914,12771.980441131991,1671628001.2,512,110422,59730
151914,12771.987707212378,1671628001.2,512,110422,59730
151915,12771.994973292765,1671628001.2,512,110444,59725
151915,12772.002239373152,1671628001.2,512,110444,59725
151916,12772.00950545354,1671628001.2,512,110459,59716
151916,12772.016771533927,1671628001.2,512,110459,59716
151917,12772.024037614314,1671628001.2,514,110491,59712
151917,12772.031303694701,1671628001.2,514,110491,59712
151918,12772.038569775088,1671628001.2,514,110417,59711
151918,12772.045835855475,1671628001.2,514,110417,59711
151919,12772.053101935862,1671628001.2,512,110362,59688
151919,12772.06036801625,1671628001.2,512,110362,59688
151920,12772.067634096637,1671628001.291,511,110408,59699
151920,12772.074900177024,1671628001.291,511,110408,59699
151921,12772.08216625741,1671628001.291,511,110369,59691
151921,12772.089432337798,1671628001.291,511,110369,59691
151922,12772.096698418185,1671628001.291,511,110417,59692
151922,12772.103964498572,1671628001.291,511,110417,59692
151923,12772.11123057896,1671628001.291,512,110363,59669
151923,12772.118496659346,1671628001.291,512,110363,59669
151924,12772.136242818797,1671628001.291,512,110408,59689
151924,12772.143370704443,1671628001.291,512,110408,59689
151925,12772.15049859009,1671628001.291,515,110363,59689
151925,12772.157626475737,1671628001.291,515,110363,59689
151926,12772.164754361384,1671628001.393,515,110382,59682
151926,12772.17188224703,1671628001.393,515,110382,59682
151927,12772.179010132677,1671628001.393,512,110389,59670
151927,12772.186138018324,1671628001.393,512,110389,59670
151928,12772.19326590397,1671628001.393,514,110368,59677
151928,12772.200393789617,1671628001.393,514,110368,59677
151929,12772.207521675264,1671628001.393,512,110390,59685
151929,12772.21464956091,1671628001.393,512,110390,59685
151930,12772.221777446557,1671628001.393,510,110304,59672
151930,12772.228905332204,1671628001.393,510,110304,59672
151931,12772.23603321785,1671628001.393,512,110353,59669
151931,12772.243161103497,1671628001.393,512,110353,59669
151932,12772.250288989144,1671628001.478,514,110370,59674
151932,12772.25741687479,1671628001.478,514,110370,59674
151933,12772.264544760437,1671628001.478,514,110330,59698
151933,12772.271672646084,1671628001.478,514,110330,59698
151934,12772.297474033816,1671628001.478,512,110374,59689
151934,12772.30449514736,1671628001.478,512,110374,59689
151935,12772.311516260905,1671628001.478,511,110431,59671
151935,12772.318537374449,1671628001.478,511,110431,59671
151936,12772.325558487993,1671628001.478,511,110385,59680
151936,12772.332579601538,1671628001.478,511,110385,59680
151937,12772.339600715082,1671628001.478,511,110404,59702
151937,12772.346621828627,1671628001.478,511,110404,59702
151938,12772.353642942171,1671628001.576,511,110502,59684
151938,12772.360664055715,1671628001.576,511,110502,59684
151939,12772.36768516926,1671628001.576,512,110460,59692
151939,12772.374706282804,1671628001.576,512,110460,59692
151940,12772.381727396349,1671628001.576,514,110464,59679
151940,12772.388748509893,1671628001.576,514,110464,59679
151941,12772.395769623437,1671628001.576,511,110388,59707
151941,12772.402790736982,1671628001.576,511,110388,59707
151942,12772.409811850526,1671628001.576,514,110454,59701
151942,12772.41683296407,1671628001.576,514,110454,59701
151943,12772.423854077615,1671628001.576,511,110488,59693
151943,12772.43087519116,1671628001.576,511,110488,59693
151944,12772.452381008472,1671628001.676,510,110481,59716
151944,12772.460026997309,1671628001.676,510,110481,59716
151945,12772.467672986146,1671628001.676,511,110529,59710
151945,12772.475318974983,1671628001.676,511,110529,59710
151946,12772.48296496382,1671628001.676,511,110496,59732
151946,12772.490610952656,1671628001.676,511,110496,59732
151947,12772.498256941493,1671628001.676,512,110521,59718
151947,12772.50590293033,1671628001.676,512,110521,59718
151948,12772.513548919167,1671628001.676,514,110531,59736
151948,12772.521194908004,1671628001.676,514,110531,59736
151949,12772.52884089684,1671628001.676,514,110590,59736
151949,12772.536486885678,1671628001.676,514,110590,59736
151950,12772.544132874515,1671628001.769,514,110527,59717
151950,12772.551778863352,1671628001.769,514,110527,59717
151951,12772.559424852188,1671628001.769,512,110561,59722
151951,12772.567070841025,1671628001.769,512,110561,59722
151952,12772.574716829862,1671628001.769,512,110582,59750
151952,12772.582362818699,1671628001.769,512,110582,59750
151953,12772.590008807536,1671628001.769,512,110595,59749
151953,12772.597654796373,1671628001.769,512,110595,59749
151954,12772.614077864075,1671628001.769,512,110604,59762
151954,12772.621398104267,1671628001.769,512,110604,59762
151955,12772.62871834446,1671628001.769,514,110637,59756
151955,12772.636038584653,1671628001.769,514,110637,59756
151956,12772.643358824846,1671628001.861,515,110673,59744
151956,12772.650679065038,1671628001.861,515,110673,59744
151957,12772.657999305231,1671628001.861,512,110677,59758
151957,12772.665319545424,1671628001.861,512,110677,59758
151958,12772.672639785616,1671628001.861,512,110700,59761
151958,12772.67996002581,1671628001.861,512,110700,59761
151959,12772.687280266002,1671628001.861,512,110723,59781
151959,12772.694600506195,1671628001.861,512,110723,59781
151960,12772.701920746387,1671628001.861,511,110692,59777
151960,12772.70924098658,1671628001.861,511,110692,59777
151961,12772.716561226773,1671628001.861,511,110770,59783
151961,12772.723881466965,1671628001.861,511,110770,59783
151962,12772.731201707158,1671628001.951,511,110698,59825
151962,12772.73852194735,1671628001.951,511,110698,59825
151963,12772.745842187544,1671628001.951,511,110763,59810
151963,12772.753162427736,1671628001.951,511,110763,59810
151964,12772.766803693214,1671628001.951,512,110777,59812
151964,12772.77387174502,1671628001.951,512,110777,59812
151965,12772.780939796825,1671628001.951,511,110823,59831
151965,12772.78800784863,1671628001.951,511,110823,59831
151966,12772.795075900436,1671628001.951,510,110841,59822
151966,12772.802143952242,1671628001.951,510,110841,59822
151967,12772.809212004047,1671628001.951,512,110844,59833
151967,12772.816280055853,1671628001.951,512,110844,59833
151968,12772.823348107659,1671628002.046,511,110921,59843
151968,12772.830416159464,1671628002.046,511,110921,59843
151969,12772.83748421127,1671628002.046,510,110851,59854
151969,12772.844552263075,1671628002.046,510,110851,59854
151970,12772.851620314881,1671628002.046,514,110905,59864
151970,12772.858688366687,1671628002.046,514,110905,59864
151971,12772.865756418492,1671628002.046,512,110901,59864
151971,12772.872824470298,1671628002.046,512,110901,59864
151972,12772.879892522104,1671628002.046,512,110920,59863
151972,12772.88696057391,1671628002.046,512,110920,59863
151973,12772.894028625715,1671628002.046,514,110935,59872
151973,12772.90109667752,1671628002.046,514,110935,59872
151974,12772.921957271437,1671628002.135,512,110895,59892
151974,12772.929364590156,1671628002.135,512,110895,59892
151975,12772.936771908875,1671628002.135,512,111036,59879
151975,12772.944179227594,1671628002.135,512,111036,59879
151976,12772.951586546313,1671628002.135,511,110918,59888
151976,12772.958993865032,1671628002.135,511,110918,59888
151977,12772.96640118375,1671628002.135,510,110937,59900
151977,12772.97380850247,1671628002.135,510,110937,59900
151978,12772.981215821188,1671628002.135,512,110952,59870
151978,12772.988623139907,1671628002.135,512,110952,59870
151979,12772.996030458626,1671628002.135,514,110908,59883
151979,12773.003437777345,1671628002.135,514,110908,59883
151980,12773.010845096063,1671628002.229,512,110865,59852
151980,12773.018252414782,1671628002.229,512,110865,59852
151981,12773.025659733501,1671628002.229,511,110724,59828
151981,12773.03306705222,1671628002.229,511,110724,59828
151982,12773.040474370939,1671628002.229,511,110687,59814
151982,12773.047881689658,1671628002.229,511,110687,59814
151983,12773.055289008376,1671628002.229,510,110623,59816
151983,12773.062696327095,1671628002.229,510,110623,59816
151984,12773.073197501573,1671628002.229,511,110552,59787
151984,12773.080495736345,1671628002.229,511,110552,59787
151985,12773.087793971117,1671628002.229,512,110570,59784
151985,12773.09509220589,1671628002.229,512,110570,59784
151986,12773.102390440661,1671628002.327,512,110523,59777
151986,12773.109688675433,1671628002.327,512,110523,59777
151987,12773.116986910205,1671628002.327,515,110486,59771
151987,12773.124285144977,1671628002.327,515,110486,59771
151988,12773.131583379749,1671628002.327,512,110402,59746
151988,12773.13888161452,1671628002.327,512,110402,59746
151989,12773.146179849293,1671628002.327,512,110415,59761
151989,12773.153478084065,1671628002.327,512,110415,59761
151990,12773.160776318837,1671628002.327,512,110422,59771
151990,12773.168074553609,1671628002.327,512,110422,59771
151991,12773.17537278838,1671628002.327,511,110430,59753
151991,12773.182671023153,1671628002.327,511,110430,59753
151992,12773.189969257925,1671628002.423,512,110366,59740
151992,12773.197267492696,1671628002.423,512,110366,59740
151993,12773.204565727468,1671628002.423,514,110368,59722
151993,12773.21186396224,1671628002.423,514,110368,59722
151994,12773.23547193753,1671628002.423,514,110276,59730
151994,12773.243038363384,1671628002.423,514,110276,59730
151995,12773.250604789237,1671628002.423,514,110263,59719
151995,12773.25817121509,1671628002.423,514,110263,59719
151996,12773.265737640942,1671628002.423,512,110264,59696
151996,12773.273304066795,1671628002.423,512,110264,59696
151997,12773.280870492648,1671628002.423,515,110288,59704
151997,12773.288436918501,1671628002.423,515,110288,59704
151998,12773.296003344354,1671628002.514,512,110269,59705
151998,12773.303569770207,1671628002.514,512,110269,59705
151999,12773.31113619606,1671628002.514,512,110336,59693
151999,12773.318702621913,1671628002.514,512,110336,59693
152000,12773.326269047766,1671628002.514,512,110256,59700
152000,12773.333835473619,1671628002.514,512,110256,59700
152001,12773.341401899472,1671628002.514,512,110312,59684
152001,12773.348968325325,1671628002.514,512,110312,59684
152002,12773.356534751178,1671628002.514,512,110155,59678
152002,12773.36410117703,1671628002.514,512,110155,59678
152003,12773.371667602883,1671628002.514,514,110209,59695
152003,12773.379234028736,1671628002.514,514,110209,59695
152004,12773.389289990553,1671628002.601,512,110199,59676
152004,12773.396358066711,1671628002.601,512,110199,59676
152005,12773.40342614287,1671628002.601,512,110174,59680
152005,12773.410494219028,1671628002.601,512,110174,59680
152006,12773.417562295186,1671628002.601,512,110207,59671
152006,12773.424630371344,1671628002.601,512,110207,59671
152007,12773.431698447503,1671628002.601,511,110209,59678
152007,12773.43876652366,1671628002.601,511,110209,59678
152008,12773.44583459982,1671628002.601,512,110183,59683
152008,12773.452902675977,1671628002.601,512,110183,59683
152009,12773.459970752136,1671628002.601,514,110179,59670
152009,12773.467038828294,1671628002.601,514,110179,59670
152010,12773.474106904452,1671628002.699,514,110233,59666
152010,12773.48117498061,1671628002.699,514,110233,59666
152011,12773.488243056769,1671628002.699,514,110236,59672
152011,12773.495311132927,1671628002.699,514,110236,59672
152012,12773.502379209085,1671628002.699,512,110213,59670
152012,12773.509447285243,1671628002.699,512,110213,59670
152013,12773.516515361402,1671628002.699,514,110153,59673
152013,12773.52358343756,1671628002.699,514,110153,59673
152014,12773.542127603054,1671628002.699,511,110263,59697
152014,12773.54973317408,1671628002.699,511,110263,59697
152015,12773.557338745108,1671628002.699,512,110260,59688
152015,12773.564944316135,1671628002.699,512,110260,59688
152016,12773.572549887162,1671628002.799,512,110226,59677
152016,12773.580155458189,1671628002.799,512,110226,59677
152017,12773.587761029215,1671628002.799,511,110247,59685
152017,12773.595366600242,1671628002.799,511,110247,59685
152018,12773.60297217127,1671628002.799,512,110280,59702
152018,12773.610577742296,1671628002.799,512,110280,59702
152019,12773.618183313323,1671628002.799,514,110339,59695
152019,12773.62578888435,1671628002.799,514,110339,59695
152020,12773.633394455377,1671628002.799,512,110288,59708
152020,12773.641000026404,1671628002.799,512,110288,59708
152021,12773.648605597431,1671628002.799,512,110300,59695
152021,12773.656211168458,1671628002.799,512,110300,59695
152022,12773.663816739485,1671628002.887,512,110266,59712
152022,12773.671422310512,1671628002.887,512,110266,59712
152023,12773.679027881539,1671628002.887,511,110278,59730
152023,12773.686633452566,1671628002.887,511,110278,59730
152024,12773.704527362392,1671628002.887,511,110325,59722
152024,12773.71170636523,1671628002.887,511,110325,59722
152025,12773.718885368067,1671628002.887,511,110357,59714
152025,12773.726064370905,1671628002.887,511,110357,59714
152026,12773.733243373743,1671628002.887,512,110342,59726
152026,12773.74042237658,1671628002.887,512,110342,59726
152027,12773.747601379418,1671628002.887,512,110398,59714
152027,12773.754780382256,1671628002.887,512,110398,59714
152028,12773.761959385094,1671628002.979,512,110391,59734
152028,12773.769138387932,1671628002.979,512,110391,59734
152029,12773.77631739077,1671628002.979,511,110396,59743
152029,12773.783496393607,1671628002.979,511,110396,59743
152030,12773.790675396445,1671628002.979,512,110392,59749
152030,12773.797854399283,1671628002.979,512,110392,59749
152031,12773.80503340212,1671628002.979,511,110406,59736
152031,12773.812212404959,1671628002.979,511,110406,59736
152032,12773.819391407797,1671628002.979,511,110420,59747
152032,12773.826570410634,1671628002.979,511,110420,59747
152033,12773.833749413472,1671628002.979,514,110487,59757
152033,12773.84092841631,1671628002.979,514,110487,59757
152034,12773.854495763366,1671628003.074,515,110489,59782
152034,12773.861633533783,1671628003.074,515,110489,59782
152035,12773.8687713042,1671628003.074,511,110519,59767
152035,12773.875909074617,1671628003.074,511,110519,59767
152036,12773.883046845034,1671628003.074,514,110494,59776
152036,12773.890184615451,1671628003.074,514,110494,59776
152037,12773.897322385868,1671628003.074,512,110530,59791
152037,12773.904460156285,1671628003.074,512,110530,59791
152038,12773.911597926703,1671628003.074,511,110514,59796
152038,12773.91873569712,1671628003.074,511,110514,59796
152039,12773.925873467537,1671628003.074,512,110557,59804
152039,12773.933011237954,1671628003.074,512,110557,59804
152040,12773.940149008371,1671628003.166,510,110531,59779
152040,12773.947286778788,1671628003.166,510,110531,59779
152041,12773.954424549205,1671628003.166,514,110575,59797
152041,12773.961562319622,1671628003.166,514,110575,59797
152042,12773.96870009004,1671628003.166,512,110639,59798
152042,12773.975837860457,1671628003.166,512,110639,59798
152043,12773.982975630874,1671628003.166,512,110620,59820
152043,12773.99011340129,1671628003.166,512,110620,59820
152044,12774.0113392098,1671628003.166,514,110633,59821
152044,12774.01859795249,1671628003.166,514,110633,59821
152045,12774.025856695182,1671628003.166,514,110656,59819
152045,12774.033115437873,1671628003.166,514,110656,59819
152046,12774.040374180564,1671628003.268,512,110657,59835
152046,12774.047632923255,1671628003.268,512,110657,59835
152047,12774.054891665946,1671628003.268,512,110756,59853
152047,12774.062150408638,1671628003.268,512,110756,59853
152048,12774.069409151329,1671628003.268,514,110690,59859
152048,12774.07666789402,1671628003.268,514,110690,59859
152049,12774.083926636711,1671628003.268,512,110690,59856
152049,12774.091185379402,1671628003.268,512,110690,59856
152050,12774.098444122093,1671628003.268,514,110641,59862
152050,12774.105702864785,1671628003.268,514,110641,59862
152051,12774.112961607476,1671628003.268,514,110760,59884
152051,12774.120220350167,1671628003.268,514,110760,59884
152052,12774.127479092858,1671628003.353,512,110776,59896
152052,12774.13473783555,1671628003.353,512,110776,59896
152053,12774.14199657824,1671628003.353,512,110755,59897
152053,12774.149255320932,1671628003.353,512,110755,59897
152054,12774.17241298087,1671628003.353,512,110811,59892
152054,12774.179435062051,1671628003.353,512,110811,59892
152055,12774.186457143232,1671628003.353,512,110840,59902
152055,12774.193479224414,1671628003.353,512,110840,59902
152056,12774.200501305595,1671628003.353,512,110815,59914
152056,12774.207523386776,1671628003.353,512,110815,59914
152057,12774.214545467958,1671628003.353,512,110848,59918
152057,12774.221567549139,1671628003.353,512,110848,59918
152058,12774.22858963032,1671628003.443,515,110889,59938
152058,12774.235611711501,1671628003.443,515,110889,59938
152059,12774.242633792683,1671628003.443,512,110880,59939
152059,12774.249655873864,1671628003.443,512,110880,59939
152060,12774.256677955045,1671628003.443,514,110824,59910
152060,12774.263700036227,1671628003.443,514,110824,59910
152061,12774.270722117408,1671628003.443,512,110758,59911
152061,12774.277744198589,1671628003.443,512,110758,59911
152062,12774.28476627977,1671628003.443,511,110685,59876
152062,12774.291788360952,1671628003.443,511,110685,59876
152063,12774.298810442133,1671628003.443,511,110642,59858
152063,12774.305832523314,1671628003.443,511,110642,59858
152064,12774.31828561526,1671628003.546,514,110526,59856
152064,12774.325281746347,1671628003.546,514,110526,59856
152065,12774.332277877435,1671628003.546,512,110492,59857
152065,12774.339274008522,1671628003.546,512,110492,59857
152066,12774.34627013961,1671628003.546,514,110467,59828
152066,12774.353266270697,1671628003.546,514,110467,59828
152067,12774.360262401784,1671628003.546,514,110422,59825
152067,12774.367258532871,1671628003.546,514,110422,59825
152068,12774.374254663959,1671628003.546,514,110431,59819
152068,12774.381250795046,1671628003.546,514,110431,59819
152069,12774.388246926133,1671628003.546,514,110361,59811
152069,12774.39524305722,1671628003.546,514,110361,59811
152070,12774.402239188308,1671628003.637,511,110349,59798
152070,12774.409235319396,1671628003.637,511,110349,59798
152071,12774.416231450483,1671628003.637,510,110383,59811
152071,12774.42322758157,1671628003.637,510,110383,59811
152072,12774.430223712658,1671628003.637,511,110363,59799
152072,12774.437219843745,1671628003.637,511,110363,59799
152073,12774.444215974832,1671628003.637,514,110276,59770
152073,12774.45121210592,1671628003.637,514,110276,59770
152074,12774.48226963409,1671628003.637,511,110284,59788
152074,12774.489403398646,1671628003.637,511,110284,59788
152075,12774.4965371632,1671628003.637,514,110244,59768
152075,12774.503670927756,1671628003.637,514,110244,59768
152076,12774.51080469231,1671628003.728,514,110248,59779
152076,12774.517938456866,1671628003.728,514,110248,59779
152077,12774.52507222142,1671628003.728,510,110195,59766
152077,12774.532205985975,1671628003.728,510,110195,59766
152078,12774.53933975053,1671628003.728,510,110221,59761
152078,12774.546473515085,1671628003.728,510,110221,59761
152079,12774.55360727964,1671628003.728,512,110221,59757
152079,12774.560741044195,1671628003.728,512,110221,59757
152080,12774.56787480875,1671628003.728,512,110194,59731
152080,12774.575008573305,1671628003.728,512,110194,59731
152081,12774.58214233786,1671628003.728,512,110188,59750
152081,12774.589276102415,1671628003.728,512,110188,59750
152082,12774.59640986697,1671628003.823,515,110108,59774
152082,12774.603543631525,1671628003.823,515,110108,59774
152083,12774.61067739608,1671628003.823,512,110219,59749
152083,12774.617811160635,1671628003.823,512,110219,59749
152084,12774.636156546592,1671628003.823,515,110210,59720
152084,12774.64350646414,1671628003.823,515,110210,59720
152085,12774.650856381686,1671628003.823,512,110124,59749
152085,12774.658206299233,1671628003.823,512,110124,59749
152086,12774.66555621678,1671628003.823,510,110199,59740
152086,12774.672906134327,1671628003.823,510,110199,59740
152087,12774.680256051874,1671628003.823,512,110198,59747
152087,12774.68760596942,1671628003.823,512,110198,59747
152088,12774.694955886967,1671628003.922,514,110179,59751
152088,12774.702305804514,1671628003.922,514,110179,59751
152089,12774.709655722061,1671628003.922,511,110212,59736
152089,12774.717005639608,1671628003.922,511,110212,59736
152090,12774.724355557155,1671628003.922,514,110171,59747
152090,12774.731705474702,1671628003.922,514,110171,59747
152091,12774.739055392249,1671628003.922,514,110237,59727
152091,12774.746405309796,1671628003.922,514,110237,59727
152092,12774.753755227342,1671628003.922,511,110221,59753
152092,12774.76110514489,1671628003.922,511,110221,59753
152093,12774.768455062436,1671628003.922,511,110223,59741
152093,12774.775804979983,1671628003.922,511,110223,59741
152094,12774.798483836517,1671628004.024,511,110261,59738
152094,12774.806175660568,1671628004.024,511,110261,59738
152095,12774.813867484618,1671628004.024,511,110214,59755
152095,12774.821559308668,1671628004.024,511,110214,59755
152096,12774.829251132718,1671628004.024,511,110254,59739
152096,12774.836942956768,1671628004.024,511,110254,59739
152097,12774.844634780819,1671628004.024,512,110236,59738
152097,12774.852326604869,1671628004.024,512,110236,59738
152098,12774.860018428919,1671628004.024,514,110275,59757
152098,12774.86771025297,1671628004.024,514,110275,59757
152099,12774.87540207702,1671628004.024,514,110227,59751
152099,12774.88309390107,1671628004.024,514,110227,59751
152100,12774.89078572512,1671628004.104,512,110306,59753
152100,12774.89847754917,1671628004.104,512,110306,59753
152101,12774.90616937322,1671628004.104,511,110220,59756
152101,12774.91386119727,1671628004.104,511,110220,59756
152102,12774.92155302132,1671628004.104,510,110289,59758
152102,12774.92924484537,1671628004.104,510,110289,59758
152103,12774.93693666942,1671628004.104,514,110278,59782
152103,12774.944628493471,1671628004.104,514,110278,59782
152104,12774.952246450757,1671628004.104,512,110274,59795
152104,12774.958550557467,1671628004.104,512,110274,59795
152105,12774.964854664177,1671628004.104,512,110319,59774
152105,12774.971158770886,1671628004.104,512,110319,59774
152106,12774.977462877596,1671628004.198,514,110309,59774
152106,12774.983766984305,1671628004.198,514,110309,59774
152107,12774.990071091015,1671628004.198,512,110300,59761
152107,12774.996375197725,1671628004.198,512,110300,59761
152108,12775.002679304434,1671628004.198,512,110336,59790
152108,12775.008983411144,1671628004.198,512,110336,59790
152109,12775.015287517854,1671628004.198,510,110360,59782
152109,12775.021591624563,1671628004.198,510,110360,59782
152110,12775.027895731273,1671628004.198,511,110300,59790
152110,12775.034199837983,1671628004.198,511,110300,59790
152111,12775.040503944692,1671628004.198,511,110338,59793
152111,12775.046808051402,1671628004.198,511,110338,59793
152112,12775.053112158112,1671628004.301,511,110357,59799
152112,12775.059416264821,1671628004.301,511,110357,59799
152113,12775.065720371531,1671628004.301,514,110379,59803
152113,12775.07202447824,1671628004.301,514,110379,59803
152114,12775.109095900314,1671628004.301,514,110427,59820
152114,12775.116932989382,1671628004.301,514,110427,59820
152115,12775.12477007845,1671628004.301,511,110427,59807
152115,12775.132607167518,1671628004.301,511,110427,59807
152116,12775.140444256585,1671628004.301,512,110470,59810
152116,12775.148281345653,1671628004.301,512,110470,59810
152117,12775.156118434721,1671628004.301,511,110512,59815
152117,12775.163955523789,1671628004.301,511,110512,59815
152118,12775.171792612857,1671628004.387,510,110502,59829
152118,12775.179629701925,1671628004.387,510,110502,59829
152119,12775.187466790992,1671628004.387,511,110460,59831
152119,12775.19530388006,1671628004.387,511,110460,59831
152120,12775.203140969128,1671628004.387,511,110495,59841
152120,12775.210978058196,1671628004.387,511,110495,59841
152121,12775.218815147264,1671628004.387,514,110527,59843
152121,12775.226652236332,1671628004.387,514,110527,59843
152122,12775.2344893254,1671628004.387,510,110553,59860
152122,12775.242326414467,1671628004.387,510,110553,59860
152123,12775.250163503535,1671628004.387,512,110521,59861
152123,12775.258000592603,1671628004.387,512,110521,59861
152124,12775.26272409208,1671628004.485,512,110594,59868
152124,12775.269481532468,1671628004.485,512,110594,59868
152125,12775.276238972858,1671628004.485,512,110619,59863
152125,12775.282996413247,1671628004.485,512,110619,59863
152126,12775.289753853636,1671628004.485,511,110617,59890
152126,12775.296511294026,1671628004.485,511,110617,59890
152127,12775.303268734415,1671628004.485,512,110618,59902
152127,12775.310026174804,1671628004.485,512,110618,59902
152128,12775.316783615193,1671628004.485,511,110652,59886
152128,12775.323541055583,1671628004.485,511,110652,59886
152129,12775.330298495972,1671628004.485,511,110659,59904
152129,12775.337055936361,1671628004.485,511,110659,59904
152130,12775.34381337675,1671628004.575,512,110628,59919
152130,12775.35057081714,1671628004.575,512,110628,59919
152131,12775.357328257529,1671628004.575,511,110591,59890
152131,12775.364085697918,1671628004.575,511,110591,59890
152132,12775.370843138307,1671628004.575,511,110560,59876
152132,12775.377600578697,1671628004.575,511,110560,59876
152133,12775.384358019086,1671628004.575,511,110494,59871
152133,12775.391115459475,1671628004.575,511,110494,59871
152134,12775.420679979312,1671628004.575,511,110400,59849
152134,12775.427688742406,1671628004.575,511,110400,59849
152135,12775.4346975055,1671628004.575,510,110348,59819
152135,12775.441706268593,1671628004.575,510,110348,59819
152136,12775.448715031687,1671628004.678,510,110262,59818
152136,12775.455723794781,1671628004.678,510,110262,59818
152137,12775.462732557875,1671628004.678,511,110286,59819
152137,12775.469741320969,1671628004.678,511,110286,59819
152138,12775.476750084063,1671628004.678,511,110273,59796
152138,12775.483758847156,1671628004.678,511,110273,59796
152139,12775.49076761025,1671628004.678,511,110246,59795
152139,12775.497776373344,1671628004.678,511,110246,59795
152140,12775.504785136438,1671628004.678,510,110231,59798
152140,12775.511793899532,1671628004.678,510,110231,59798
152141,12775.518802662626,1671628004.678,511,110157,59788
152141,12775.52581142572,1671628004.678,511,110157,59788
152142,12775.532820188813,1671628004.761,511,110174,59770
152142,12775.539828951907,1671628004.761,511,110174,59770
152143,12775.546837715001,1671628004.761,512,110153,59778
152143,12775.553846478095,1671628004.761,512,110153,59778
152144,12775.581558861611,1671628004.761,511,110183,59767
152144,12775.588491616203,1671628004.761,511,110183,59767
152145,12775.595424370795,1671628004.761,514,110126,59763
152145,12775.602357125386,1671628004.761,514,110126,59763
152146,12775.609289879978,1671628004.761,512,110148,59771
152146,12775.61622263457,1671628004.761,512,110148,59771
152147,12775.623155389161,1671628004.761,514,110190,59762
152147,12775.630088143753,1671628004.761,514,110190,59762
152148,12775.637020898344,1671628004.854,510,110139,59759
152148,12775.643953652936,1671628004.854,510,110139,59759
152149,12775.650886407528,1671628004.854,511,110137,59749
152149,12775.65781916212,1671628004.854,511,110137,59749
152150,12775.66475191671,1671628004.854,512,110165,59758
152150,12775.671684671303,1671628004.854,512,110165,59758
152151,12775.678617425894,1671628004.854,512,110152,59735
152151,12775.685550180486,1671628004.854,512,110152,59735
152152,12775.692482935077,1671628004.854,514,110102,59746
152152,12775.699415689669,1671628004.854,514,110102,59746
152153,12775.70634844426,1671628004.854,512,110088,59739
152153,12775.713281198852,1671628004.854,512,110088,59739
152154,12775.729628002851,1671628004.949,514,110142,59743
152154,12775.736878234631,1671628004.949,514,110142,59743
152155,12775.744128466411,1671628004.949,512,110077,59732
152155,12775.75137869819,1671628004.949,512,110077,59732
152156,12775.75862892997,1671628004.949,511,110071,59732
152156,12775.76587916175,1671628004.949,511,110071,59732
152157,12775.77312939353,1671628004.949,511,110087,59718
152157,12775.78037962531,1671628004.949,511,110087,59718
152158,12775.78762985709,1671628004.949,512,110077,59733
152158,12775.79488008887,1671628004.949,512,110077,59733
152159,12775.80213032065,1671628004.949,514,110064,59726
152159,12775.80938055243,1671628004.949,514,110064,59726
152160,12775.81663078421,1671628005.045,511,110057,59716
152160,12775.82388101599,1671628005.045,511,110057,59716
152161,12775.831131247769,1671628005.045,514,110040,59734
152161,12775.838381479549,1671628005.045,514,110040,59734
152162,12775.845631711329,1671628005.045,511,110130,59740
152162,12775.852881943109,1671628005.045,511,110130,59740
152163,12775.860132174888,1671628005.045,511,110064,59734
152163,12775.867382406668,1671628005.045,511,110064,59734
152164,12775.889506355641,1671628005.045,512,110134,59737
152164,12775.897035185213,1671628005.045,512,110134,59737
152165,12775.904564014785,1671628005.045,512,110102,59739
152165,12775.912092844357,1671628005.045,512,110102,59739
152166,12775.91962167393,1671628005.139,512,110070,59722
152166,12775.927150503501,1671628005.139,512,110070,59722
152167,12775.934679333073,1671628005.139,511,110163,59744
152167,12775.942208162645,1671628005.139,511,110163,59744
152168,12775.949736992217,1671628005.139,512,110161,59738
152168,12775.95726582179,1671628005.139,512,110161,59738
152169,12775.964794651361,1671628005.139,512,110160,59768
152169,12775.972323480933,1671628005.139,512,110160,59768
152170,12775.979852310506,1671628005.139,512,110153,59748
152170,12775.987381140078,1671628005.139,512,110153,59748
152171,12775.99490996965,1671628005.139,511,110092,59742
152171,12776.002438799222,1671628005.139,511,110092,59742
152172,12776.009967628794,1671628005.228,512,110205,59752
152172,12776.017496458366,1671628005.228,512,110205,59752
152173,12776.025025287938,1671628005.228,512,110170,59788
152173,12776.03255411751,1671628005.228,512,110170,59788
152174,12776.044241776952,1671628005.228,511,110165,59759
152174,12776.051314023236,1671628005.228,511,110165,59759
152175,12776.05838626952,1671628005.228,511,110221,59767
152175,12776.065458515804,1671628005.228,511,110221,59767
152176,12776.072530762089,1671628005.228,514,110202,59751
152176,12776.079603008373,1671628005.228,514,110202,59751
152177,12776.086675254657,1671628005.228,515,110245,59768
152177,12776.093747500941,1671628005.228,515,110245,59768
152178,12776.100819747226,1671628005.323,512,110208,59768
152178,12776.10789199351,1671628005.323,512,110208,59768
152179,12776.114964239794,1671628005.323,514,110261,59787
152179,12776.122036486078,1671628005.323,514,110261,59787
152180,12776.129108732363,1671628005.323,512,110187,59789
152180,12776.136180978647,1671628005.323,512,110187,59789
152181,12776.143253224931,1671628005.323,511,110268,59783
152181,12776.150325471215,1671628005.323,511,110268,59783
152182,12776.1573977175,1671628005.323,512,110231,59784
152182,12776.164469963784,1671628005.323,512,110231,59784
152183,12776.171542210068,1671628005.323,512,110298,59800
152183,12776.178614456352,1671628005.323,512,110298,59800
152184,12776.199485443698,1671628005.417,515,110338,59809
152184,12776.20692396853,1671628005.417,515,110338,59809
152185,12776.214362493361,1671628005.417,512,110348,59818
152185,12776.221801018193,1671628005.417,512,110348,59818
152186,12776.229239543025,1671628005.417,514,110302,59804
152186,12776.236678067857,1671628005.417,514,110302,59804
152187,12776.244116592688,1671628005.417,512,110282,59811
152187,12776.25155511752,1671628005.417,512,110282,59811
152188,12776.258993642352,1671628005.417,512,110389,59825
152188,12776.266432167184,1671628005.417,512,110389,59825
152189,12776.273870692015,1671628005.417,512,110344,59818
152189,12776.281309216847,1671628005.417,512,110344,59818
152190,12776.288747741679,1671628005.512,511,110402,59840
152190,12776.29618626651,1671628005.512,511,110402,59840
152191,12776.303624791342,1671628005.512,511,110337,59803
152191,12776.311063316174,1671628005.512,511,110337,59803
152192,12776.318501841006,1671628005.512,514,110190,59792
152192,12776.325940365838,1671628005.512,514,110190,59792
152193,12776.33337889067,1671628005.512,514,110168,59789
152193,12776.340817415501,1671628005.512,514,110168,59789
152194,12776.356564744738,1671628005.512,512,110067,59760
152194,12776.363996083835,1671628005.512,512,110067,59760
152195,12776.371427422933,1671628005.512,511,110043,59732
152195,12776.378858762031,1671628005.512,511,110043,59732
152196,12776.386290101129,1671628005.605,510,110006,59740
152196,12776.393721440227,1671628005.605,510,110006,59740
152197,12776.401152779325,1671628005.605,510,109937,59720
152197,12776.408584118422,1671628005.605,510,109937,59720
152198,12776.41601545752,1671628005.605,510,109954,59718
152198,12776.423446796618,1671628005.605,510,109954,59718
152199,12776.430878135716,1671628005.605,511,109888,59695
152199,12776.438309474814,1671628005.605,511,109888,59695
152200,12776.445740813911,1671628005.605,512,109947,59714
152200,12776.45317215301,1671628005.605,512,109947,59714
152201,12776.460603492107,1671628005.605,511,109910,59683
152201,12776.468034831205,1671628005.605,511,109910,59683
152202,12776.475466170303,1671628005.699,511,109848,59699
152202,12776.4828975094,1671628005.699,511,109848,59699
152203,12776.490328848498,1671628005.699,511,109846,59679
152203,12776.497760187596,1671628005.699,511,109846,59679
152204,12776.512296896515,1671628005.699,512,109826,59673
152204,12776.519625881298,1671628005.699,512,109826,59673
152205,12776.52695486608,1671628005.699,511,109794,59661
152205,12776.534283850862,1671628005.699,511,109794,59661
152206,12776.541612835645,1671628005.699,511,109799,59646
152206,12776.548941820427,1671628005.699,511,109799,59646
152207,12776.55627080521,1671628005.699,511,109761,59637
152207,12776.563599789992,1671628005.699,511,109761,59637
152208,12776.570928774774,1671628005.804,514,109749,59658
152208,12776.578257759556,1671628005.804,514,109749,59658
152209,12776.585586744339,1671628005.804,512,109717,59651
152209,12776.592915729121,1671628005.804,512,109717,59651
152210,12776.600244713904,1671628005.804,512,109742,59637
152210,12776.607573698686,1671628005.804,512,109742,59637
152211,12776.614902683468,1671628005.804,512,109703,59630
152211,12776.62223166825,1671628005.804,512,109703,59630
152212,12776.629560653033,1671628005.804,512,109691,59632
