id,lsl_ts,unix_ts,ambient,ir,red
227814,15048.819371083333,1671630277.967,553,96133,59215
227814,15048.819371083333,1671630277.967,553,96133,59215
227815,15048.822091166667,1671630277.967,538,103198,59416
227815,15048.822091166667,1671630277.967,538,103198,59416
227816,15048.82481125,1671630277.967,535,103147,59405
227816,15048.82481125,1671630277.967,535,103147,59405
227817,15048.827531333332,1671630277.967,536,103231,59406
227817,15048.827531333332,1671630277.967,536,103231,59406
227818,15048.830251416666,1671630277.967,536,103256,59418
227818,15048.830251416666,1671630277.967,536,103256,59418
227819,15048.8329715,1671630277.967,535,103285,59422
227819,15048.8329715,1671630277.967,535,103285,59422
227820,15048.842367466666,1671630278.023,536,103249,59402
227820,15048.842367466666,1671630278.023,536,103249,59402
227821,15048.851763433333,1671630278.023,536,103307,59438
227821,15048.851763433333,1671630278.023,536,103307,59438
227822,15048.8611594,1671630278.023,535,103301,59409
227822,15048.8611594,1671630278.023,535,103301,59409
227823,15048.870555366668,1671630278.023,535,103204,59394
227823,15048.870555366668,1671630278.023,535,103204,59394
227824,15048.879951333334,1671630278.023,534,103151,59376
227824,15048.879951333334,1671630278.023,534,103151,59376
227825,15048.8893473,1671630278.023,534,103291,59417
227825,15048.8893473,1671630278.023,534,103291,59417
227826,15048.897650283334,1671630278.073,535,103301,59402
227826,15048.897650283334,1671630278.073,535,103301,59402
227827,15048.905953266667,1671630278.073,536,103274,59408
227827,15048.905953266667,1671630278.073,536,103274,59408
227828,15048.91425625,1671630278.073,536,103234,59394
227828,15048.91425625,1671630278.073,536,103234,59394
227829,15048.922559233333,1671630278.073,536,103254,59397
227829,15048.922559233333,1671630278.073,536,103254,59397
227830,15048.930862216666,1671630278.073,534,103273,59397
227830,15048.930862216666,1671630278.073,534,103273,59397
227831,15048.9391652,1671630278.073,532,103292,59408
227831,15048.9391652,1671630278.073,532,103292,59408
227832,15048.95552605,1671630278.171,533,103271,59400
227832,15048.95552605,1671630278.171,533,103271,59400
227833,15048.971886899999,1671630278.171,534,103275,59377
227833,15048.971886899999,1671630278.171,534,103275,59377
227834,15048.98824775,1671630278.171,534,103356,59406
227834,15048.98824775,1671630278.171,534,103356,59406
227835,15049.0046086,1671630278.171,535,103269,59370
227835,15049.0046086,1671630278.171,535,103269,59370
227836,15049.020969449999,1671630278.171,535,103197,59358
227836,15049.020969449999,1671630278.171,535,103197,59358
227837,15049.0373303,1671630278.171,534,103277,59363
227837,15049.0373303,1671630278.171,534,103277,59363
227838,15049.051681266666,1671630278.258,534,103255,59331
227838,15049.051681266666,1671630278.258,534,103255,59331
227839,15049.066032233333,1671630278.258,534,103123,59317
227839,15049.066032233333,1671630278.258,534,103123,59317
227840,15049.0803832,1671630278.258,533,103170,59332
227840,15049.0803832,1671630278.258,533,103170,59332
227841,15049.094734166667,1671630278.258,535,103181,59338
227841,15049.094734166667,1671630278.258,535,103181,59338
227842,15049.109085133334,1671630278.258,533,103154,59327
227842,15049.109085133334,1671630278.258,533,103154,59327
227843,15049.1234361,1671630278.258,535,103145,59344
227843,15049.1234361,1671630278.258,535,103145,59344
227844,15049.13992845,1671630278.357,536,103179,59310
227844,15049.13992845,1671630278.357,536,103179,59310
227845,15049.1564208,1671630278.357,534,103093,59308
227845,15049.1564208,1671630278.357,534,103093,59308
227846,15049.17291315,1671630278.357,534,103148,59331
227846,15049.17291315,1671630278.357,534,103148,59331
227847,15049.189405500001,1671630278.357,533,103178,59335
227847,15049.189405500001,1671630278.357,533,103178,59335
227848,15049.20589785,1671630278.357,533,103193,59334
227848,15049.20589785,1671630278.357,533,103193,59334
227849,15049.2223902,1671630278.357,533,103135,59316
227849,15049.2223902,1671630278.357,533,103135,59316
227850,15049.240734016666,1671630278.467,534,103142,59308
227850,15049.240734016666,1671630278.467,534,103142,59308
227851,15049.259077833334,1671630278.467,534,103111,59293
227851,15049.259077833334,1671630278.467,534,103111,59293
227852,15049.27742165,1671630278.467,535,103143,59295
227852,15049.27742165,1671630278.467,535,103143,59295
227853,15049.295765466666,1671630278.467,534,103179,59300
227853,15049.295765466666,1671630278.467,534,103179,59300
227854,15049.314109283334,1671630278.467,534,103105,59293
227854,15049.314109283334,1671630278.467,534,103105,59293
227855,15049.3324531,1671630278.467,534,103131,59296
227855,15049.3324531,1671630278.467,534,103131,59296
227856,15049.34558985,1671630278.545,534,103231,59315
227856,15049.34558985,1671630278.545,534,103231,59315
227857,15049.3587266,1671630278.545,534,103156,59288
227857,15049.3587266,1671630278.545,534,103156,59288
227858,15049.37186335,1671630278.545,534,103033,59295
227858,15049.37186335,1671630278.545,534,103033,59295
227859,15049.385000100001,1671630278.545,536,103125,59296
227859,15049.385000100001,1671630278.545,536,103125,59296
227860,15049.39813685,1671630278.545,536,103152,59296
227860,15049.39813685,1671630278.545,536,103152,59296
227861,15049.4112736,1671630278.545,534,103138,59286
227861,15049.4112736,1671630278.545,534,103138,59286
227862,15049.426816416668,1671630278.639,532,103183,59289
227862,15049.426816416668,1671630278.639,532,103183,59289
227863,15049.442359233333,1671630278.639,534,103156,59321
227863,15049.442359233333,1671630278.639,534,103156,59321
227864,15049.45790205,1671630278.639,533,103178,59305
227864,15049.45790205,1671630278.639,533,103178,59305
227865,15049.473444866668,1671630278.639,534,103145,59323
227865,15049.473444866668,1671630278.639,534,103145,59323
227866,15049.488987683333,1671630278.639,533,103202,59314
227866,15049.488987683333,1671630278.639,533,103202,59314
227867,15049.5045305,1671630278.639,533,103146,59280
227867,15049.5045305,1671630278.639,533,103146,59280
227868,15049.51962665,1671630278.729,534,103221,59292
227868,15049.51962665,1671630278.729,534,103221,59292
227869,15049.534722800001,1671630278.729,534,103161,59305
227869,15049.534722800001,1671630278.729,534,103161,59305
227870,15049.54981895,1671630278.729,535,103166,59299
227870,15049.54981895,1671630278.729,535,103166,59299
227871,15049.5649151,1671630278.729,532,103165,59310
227871,15049.5649151,1671630278.729,532,103165,59310
227872,15049.58001125,1671630278.729,533,103232,59294
227872,15049.58001125,1671630278.729,533,103232,59294
227873,15049.5951074,1671630278.729,532,103275,59280
227873,15049.5951074,1671630278.729,532,103275,59280
227874,15049.611652633334,1671630278.829,533,103224,59299
227874,15049.611652633334,1671630278.829,533,103224,59299
227875,15049.628197866667,1671630278.829,534,103257,59306
227875,15049.628197866667,1671630278.829,534,103257,59306
227876,15049.644743100002,1671630278.829,534,103279,59305
227876,15049.644743100002,1671630278.829,534,103279,59305
227877,15049.661288333335,1671630278.829,532,103166,59285
227877,15049.661288333335,1671630278.829,532,103166,59285
227878,15049.677833566668,1671630278.829,533,103255,59287
227878,15049.677833566668,1671630278.829,533,103255,59287
227879,15049.6943788,1671630278.829,533,103332,59303
227879,15049.6943788,1671630278.829,533,103332,59303
227880,15049.710744466667,1671630278.927,532,103227,59284
227880,15049.710744466667,1671630278.927,532,103227,59284
227881,15049.727110133334,1671630278.927,534,103255,59294
227881,15049.727110133334,1671630278.927,534,103255,59294
227882,15049.7434758,1671630278.927,534,103280,59296
227882,15049.7434758,1671630278.927,534,103280,59296
227883,15049.759841466666,1671630278.927,533,103256,59265
227883,15049.759841466666,1671630278.927,533,103256,59265
227884,15049.776207133333,1671630278.927,533,103248,59281
227884,15049.776207133333,1671630278.927,533,103248,59281
227885,15049.7925728,1671630278.927,533,103243,59265
227885,15049.7925728,1671630278.927,533,103243,59265
227886,15049.80618835,1671630279.008,534,103193,59268
227886,15049.80618835,1671630279.008,534,103193,59268
227887,15049.8198039,1671630279.008,532,103148,59220
227887,15049.8198039,1671630279.008,532,103148,59220
227888,15049.833419449998,1671630279.008,533,103143,59227
227888,15049.833419449998,1671630279.008,533,103143,59227
227889,15049.847034999999,1671630279.008,533,103144,59244
227889,15049.847034999999,1671630279.008,533,103144,59244
227890,15049.86065055,1671630279.008,533,103192,59245
227890,15049.86065055,1671630279.008,533,103192,59245
227891,15049.8742661,1671630279.008,534,103192,59247
227891,15049.8742661,1671630279.008,534,103192,59247
227892,15049.89032105,1671630279.105,534,103216,59251
227892,15049.89032105,1671630279.105,534,103216,59251
227893,15049.906375999999,1671630279.105,533,103123,59224
227893,15049.906375999999,1671630279.105,533,103123,59224
227894,15049.922430949999,1671630279.105,533,103047,59222
227894,15049.922430949999,1671630279.105,533,103047,59222
227895,15049.9384859,1671630279.105,533,103155,59227
227895,15049.9384859,1671630279.105,533,103155,59227
227896,15049.95454085,1671630279.105,531,103132,59241
227896,15049.95454085,1671630279.105,531,103132,59241
227897,15049.9705958,1671630279.105,533,103116,59223
227897,15049.9705958,1671630279.105,533,103116,59223
227898,15049.987702583334,1671630279.207,533,103197,59235
227898,15049.987702583334,1671630279.207,533,103197,59235
227899,15050.004809366666,1671630279.207,535,103117,59216
227899,15050.004809366666,1671630279.207,535,103117,59216
227900,15050.021916149999,1671630279.207,533,103143,59233
227900,15050.021916149999,1671630279.207,533,103143,59233
227901,15050.039022933333,1671630279.207,532,103078,59212
227901,15050.039022933333,1671630279.207,532,103078,59212
227902,15050.056129716668,1671630279.207,533,103125,59212
227902,15050.056129716668,1671630279.207,533,103125,59212
227903,15050.0732365,1671630279.207,534,103138,59204
227903,15050.0732365,1671630279.207,534,103138,59204
227904,15050.0879425,1671630279.296,532,103088,59195
227904,15050.0879425,1671630279.296,532,103088,59195
227905,15050.1026485,1671630279.296,532,103068,59192
227905,15050.1026485,1671630279.296,532,103068,59192
227906,15050.1173545,1671630279.296,533,103107,59205
227906,15050.1173545,1671630279.296,533,103107,59205
227907,15050.1320605,1671630279.296,534,103135,59201
227907,15050.1320605,1671630279.296,534,103135,59201
227908,15050.1467665,1671630279.296,533,103095,59210
227908,15050.1467665,1671630279.296,533,103095,59210
227909,15050.1614725,1671630279.296,534,103133,59196
227909,15050.1614725,1671630279.296,534,103133,59196
227910,15050.17626,1671630279.384,533,103136,59212
227910,15050.17626,1671630279.384,533,103136,59212
227911,15050.1910475,1671630279.384,532,103107,59215
227911,15050.1910475,1671630279.384,532,103107,59215
227912,15050.205835,1671630279.384,531,103093,59182
227912,15050.205835,1671630279.384,531,103093,59182
227913,15050.220622499999,1671630279.384,533,103215,59203
227913,15050.220622499999,1671630279.384,533,103215,59203
227914,15050.23541,1671630279.384,533,103171,59204
227914,15050.23541,1671630279.384,533,103171,59204
227915,15050.2501975,1671630279.384,534,103160,59204
227915,15050.2501975,1671630279.384,534,103160,59204
227916,15050.268196716666,1671630279.492,533,103211,59211
227916,15050.268196716666,1671630279.492,533,103211,59211
227917,15050.286195933333,1671630279.492,532,103160,59198
227917,15050.286195933333,1671630279.492,532,103160,59198
227918,15050.30419515,1671630279.492,532,103065,59190
227918,15050.30419515,1671630279.492,532,103065,59190
227919,15050.322194366667,1671630279.492,532,103176,59211
227919,15050.322194366667,1671630279.492,532,103176,59211
227920,15050.340193583334,1671630279.492,531,103179,59217
227920,15050.340193583334,1671630279.492,531,103179,59217
227921,15050.3581928,1671630279.492,532,103220,59211
227921,15050.3581928,1671630279.492,532,103220,59211
227922,15050.37531995,1671630279.595,533,103235,59209
227922,15050.37531995,1671630279.595,533,103235,59209
227923,15050.392447100001,1671630279.595,532,103236,59217
227923,15050.392447100001,1671630279.595,532,103236,59217
227924,15050.40957425,1671630279.595,535,103268,59211
227924,15050.40957425,1671630279.595,535,103268,59211
227925,15050.4267014,1671630279.595,532,103228,59205
227925,15050.4267014,1671630279.595,532,103228,59205
227926,15050.44382855,1671630279.595,533,103306,59212
227926,15050.44382855,1671630279.595,533,103306,59212
227927,15050.4609557,1671630279.595,532,103324,59227
227927,15050.4609557,1671630279.595,532,103324,59227
227928,15050.473130466667,1671630279.668,533,103306,59208
227928,15050.473130466667,1671630279.668,533,103306,59208
227929,15050.485305233333,1671630279.668,532,103289,59206
227929,15050.485305233333,1671630279.668,532,103289,59206
227930,15050.49748,1671630279.668,533,103217,59195
227930,15050.49748,1671630279.668,533,103217,59195
227931,15050.509654766667,1671630279.668,533,103315,59219
227931,15050.509654766667,1671630279.668,533,103315,59219
227932,15050.521829533332,1671630279.668,533,103361,59230
227932,15050.521829533332,1671630279.668,533,103361,59230
227933,15050.5340043,1671630279.668,533,103275,59216
227933,15050.5340043,1671630279.668,533,103275,59216
227934,15050.549126033333,1671630279.759,532,103328,59212
227934,15050.549126033333,1671630279.759,532,103328,59212
227935,15050.564247766666,1671630279.759,534,103277,59226
227935,15050.564247766666,1671630279.759,534,103277,59226
227936,15050.5793695,1671630279.759,533,103367,59255
227936,15050.5793695,1671630279.759,533,103367,59255
227937,15050.594491233334,1671630279.759,533,103315,59213
227937,15050.594491233334,1671630279.759,533,103315,59213
227938,15050.609612966668,1671630279.759,532,103277,59184
227938,15050.609612966668,1671630279.759,532,103277,59184
227939,15050.6247347,1671630279.759,533,103305,59208
227939,15050.6247347,1671630279.759,533,103305,59208
227940,15050.640679783333,1671630279.855,534,103229,59172
227940,15050.640679783333,1671630279.855,534,103229,59172
227941,15050.656624866668,1671630279.855,533,103266,59167
227941,15050.656624866668,1671630279.855,533,103266,59167
227942,15050.67256995,1671630279.855,534,103199,59148
227942,15050.67256995,1671630279.855,534,103199,59148
227943,15050.688515033333,1671630279.855,533,103204,59177
227943,15050.688515033333,1671630279.855,533,103204,59177
227944,15050.704460116667,1671630279.855,533,103151,59164
227944,15050.704460116667,1671630279.855,533,103151,59164
227945,15050.7204052,1671630279.855,533,103211,59167
227945,15050.7204052,1671630279.855,533,103211,59167
227946,15050.737297266667,1671630279.956,533,103262,59164
227946,15050.737297266667,1671630279.956,533,103262,59164
227947,15050.754189333333,1671630279.956,532,103215,59157
227947,15050.754189333333,1671630279.956,532,103215,59157
227948,15050.7710814,1671630279.956,536,103194,59155
227948,15050.7710814,1671630279.956,536,103194,59155
227949,15050.787973466668,1671630279.956,532,103173,59154
227949,15050.787973466668,1671630279.956,532,103173,59154
227950,15050.804865533333,1671630279.956,534,103194,59152
227950,15050.804865533333,1671630279.956,534,103194,59152
227951,15050.8217576,1671630279.956,532,103232,59157
227951,15050.8217576,1671630279.956,532,103232,59157
227952,15050.8375465,1671630280.051,533,103215,59159
227952,15050.8375465,1671630280.051,533,103215,59159
227953,15050.853335400001,1671630280.051,531,103223,59133
227953,15050.853335400001,1671630280.051,531,103223,59133
227954,15050.8691243,1671630280.051,533,103186,59149
227954,15050.8691243,1671630280.051,533,103186,59149
227955,15050.8849132,1671630280.051,534,103194,59140
227955,15050.8849132,1671630280.051,534,103194,59140
227956,15050.9007021,1671630280.051,535,103292,59153
227956,15050.9007021,1671630280.051,535,103292,59153
227957,15050.916491,1671630280.051,533,103190,59145
227957,15050.916491,1671630280.051,533,103190,59145
227958,15050.930393366667,1671630280.134,533,103150,59136
227958,15050.930393366667,1671630280.134,533,103150,59136
227959,15050.944295733334,1671630280.134,532,103229,59138
227959,15050.944295733334,1671630280.134,532,103229,59138
227960,15050.958198100001,1671630280.134,532,103120,59132
227960,15050.958198100001,1671630280.134,532,103120,59132
227961,15050.972100466666,1671630280.134,532,103204,59145
227961,15050.972100466666,1671630280.134,532,103204,59145
227962,15050.986002833333,1671630280.134,533,103240,59135
227962,15050.986002833333,1671630280.134,533,103240,59135
227963,15050.9999052,1671630280.134,533,103187,59111
227963,15050.9999052,1671630280.134,533,103187,59111
227964,15051.0159328,1671630280.23,535,103214,59131
227964,15051.0159328,1671630280.23,535,103214,59131
227965,15051.0319604,1671630280.23,534,103222,59141
227965,15051.0319604,1671630280.23,534,103222,59141
227966,15051.047988,1671630280.23,533,103238,59149
227966,15051.047988,1671630280.23,533,103238,59149
227967,15051.0640156,1671630280.23,532,103197,59137
227967,15051.0640156,1671630280.23,532,103197,59137
227968,15051.0800432,1671630280.23,532,103231,59123
227968,15051.0800432,1671630280.23,532,103231,59123
227969,15051.0960708,1671630280.23,534,103196,59119
227969,15051.0960708,1671630280.23,534,103196,59119
227970,15051.11202745,1671630280.326,532,103215,59117
227970,15051.11202745,1671630280.326,532,103215,59117
227971,15051.1279841,1671630280.326,534,103156,59102
227971,15051.1279841,1671630280.326,534,103156,59102
227972,15051.14394075,1671630280.326,535,103236,59125
227972,15051.14394075,1671630280.326,535,103236,59125
227973,15051.1598974,1671630280.326,533,103217,59126
227973,15051.1598974,1671630280.326,533,103217,59126
227974,15051.17585405,1671630280.326,534,103280,59137
227974,15051.17585405,1671630280.326,534,103280,59137
227975,15051.1918107,1671630280.326,534,103239,59103
227975,15051.1918107,1671630280.326,534,103239,59103
227976,15051.207361816667,1671630280.419,533,103317,59121
227976,15051.207361816667,1671630280.419,533,103317,59121
227977,15051.222912933334,1671630280.419,531,103226,59089
227977,15051.222912933334,1671630280.419,531,103226,59089
227978,15051.23846405,1671630280.419,533,103267,59107
227978,15051.23846405,1671630280.419,533,103267,59107
227979,15051.254015166667,1671630280.419,533,103359,59157
227979,15051.254015166667,1671630280.419,533,103359,59157
227980,15051.269566283334,1671630280.419,533,103319,59125
227980,15051.269566283334,1671630280.419,533,103319,59125
227981,15051.2851174,1671630280.419,533,103297,59133
227981,15051.2851174,1671630280.419,533,103297,59133
227982,15051.302185216668,1671630280.522,534,103323,59126
227982,15051.302185216668,1671630280.522,534,103323,59126
227983,15051.319253033334,1671630280.522,533,103287,59140
227983,15051.319253033334,1671630280.522,533,103287,59140
227984,15051.336320850001,1671630280.522,532,103296,59131
227984,15051.336320850001,1671630280.522,532,103296,59131
227985,15051.353388666666,1671630280.522,532,103363,59134
227985,15051.353388666666,1671630280.522,532,103363,59134
227986,15051.370456483333,1671630280.522,533,103388,59119
227986,15051.370456483333,1671630280.522,533,103388,59119
227987,15051.3875243,1671630280.522,534,103268,59126
227987,15051.3875243,1671630280.522,534,103268,59126
227988,15051.401504233334,1671630280.606,533,103374,59125
227988,15051.401504233334,1671630280.606,533,103374,59125
227989,15051.415484166666,1671630280.606,533,103336,59134
227989,15051.415484166666,1671630280.606,533,103336,59134
227990,15051.4294641,1671630280.606,533,103383,59158
227990,15051.4294641,1671630280.606,533,103383,59158
227991,15051.443444033333,1671630280.606,533,103341,59132
227991,15051.443444033333,1671630280.606,533,103341,59132
227992,15051.457423966665,1671630280.606,534,103344,59160
227992,15051.457423966665,1671630280.606,534,103344,59160
227993,15051.4714039,1671630280.606,533,103430,59155
227993,15051.4714039,1671630280.606,533,103430,59155
227994,15051.4876563,1671630280.703,533,103398,59145
227994,15051.4876563,1671630280.703,533,103398,59145
227995,15051.503908699999,1671630280.703,533,103371,59145
227995,15051.503908699999,1671630280.703,533,103371,59145
227996,15051.5201611,1671630280.703,535,103409,59163
227996,15051.5201611,1671630280.703,535,103409,59163
227997,15051.5364135,1671630280.703,534,103334,59149
227997,15051.5364135,1671630280.703,534,103334,59149
227998,15051.552665899999,1671630280.703,534,103433,59145
227998,15051.552665899999,1671630280.703,534,103433,59145
227999,15051.5689183,1671630280.703,533,103418,59132
227999,15051.5689183,1671630280.703,533,103418,59132
228000,15051.58433425,1671630280.796,533,103416,59115
228000,15051.58433425,1671630280.796,533,103416,59115
228001,15051.5997502,1671630280.796,532,103387,59098
228001,15051.5997502,1671630280.796,532,103387,59098
228002,15051.61516615,1671630280.796,532,103375,59106
228002,15051.61516615,1671630280.796,532,103375,59106
228003,15051.6305821,1671630280.796,532,103397,59104
228003,15051.6305821,1671630280.796,532,103397,59104
228004,15051.64599805,1671630280.796,534,103311,59105
228004,15051.64599805,1671630280.796,534,103311,59105
228005,15051.661414,1671630280.796,534,103392,59110
228005,15051.661414,1671630280.796,534,103392,59110
228006,15051.675577033333,1671630280.881,534,103329,59089
228006,15051.675577033333,1671630280.881,534,103329,59089
228007,15051.689740066668,1671630280.881,534,103346,59099
228007,15051.689740066668,1671630280.881,534,103346,59099
228008,15051.7039031,1671630280.881,531,103337,59107
228008,15051.7039031,1671630280.881,531,103337,59107
228009,15051.718066133333,1671630280.881,533,103278,59092
228009,15051.718066133333,1671630280.881,533,103278,59092
228010,15051.732229166668,1671630280.881,533,103275,59085
228010,15051.732229166668,1671630280.881,533,103275,59085
228011,15051.7463922,1671630280.881,535,103269,59085
228011,15051.7463922,1671630280.881,535,103269,59085
228012,15051.76280375,1671630280.979,535,103261,59073
228012,15051.76280375,1671630280.979,535,103261,59073
228013,15051.779215300001,1671630280.979,533,103273,59082
228013,15051.779215300001,1671630280.979,533,103273,59082
228014,15051.79562685,1671630280.979,536,103259,59058
228014,15051.79562685,1671630280.979,536,103259,59058
228015,15051.8120384,1671630280.979,532,103308,59077
228015,15051.8120384,1671630280.979,532,103308,59077
228016,15051.82844995,1671630280.979,532,103279,59080
228016,15051.82844995,1671630280.979,532,103279,59080
228017,15051.8448615,1671630280.979,532,103362,59093
228017,15051.8448615,1671630280.979,532,103362,59093
228018,15051.86433115,1671630281.096,533,103302,59083
228018,15051.86433115,1671630281.096,533,103302,59083
228019,15051.8838008,1671630281.096,534,103304,59069
228019,15051.8838008,1671630281.096,534,103304,59069
228020,15051.903270449999,1671630281.096,533,103212,59048
228020,15051.903270449999,1671630281.096,533,103212,59048
228021,15051.922740099999,1671630281.096,534,103253,59054
228021,15051.922740099999,1671630281.096,534,103253,59054
228022,15051.94220975,1671630281.096,534,103298,59061
228022,15051.94220975,1671630281.096,534,103298,59061
228023,15051.9616794,1671630281.096,533,103304,59072
228023,15051.9616794,1671630281.096,533,103304,59072
228024,15051.9748675,1671630281.175,534,103339,59053
228024,15051.9748675,1671630281.175,534,103339,59053
228025,15051.988055599999,1671630281.175,534,103204,59042
228025,15051.988055599999,1671630281.175,534,103204,59042
228026,15052.0012437,1671630281.175,533,103279,59059
228026,15052.0012437,1671630281.175,533,103279,59059
228027,15052.0144318,1671630281.175,534,103271,59042
228027,15052.0144318,1671630281.175,534,103271,59042
228028,15052.0276199,1671630281.175,535,103241,59055
228028,15052.0276199,1671630281.175,535,103241,59055
228029,15052.040808,1671630281.175,533,103359,59052
228029,15052.040808,1671630281.175,533,103359,59052
228030,15052.054798266667,1671630281.259,532,103277,59037
228030,15052.054798266667,1671630281.259,532,103277,59037
228031,15052.068788533334,1671630281.259,532,103312,59064
228031,15052.068788533334,1671630281.259,532,103312,59064
228032,15052.082778799999,1671630281.259,532,103217,59046
228032,15052.082778799999,1671630281.259,532,103217,59046
228033,15052.096769066666,1671630281.259,533,103315,59043
228033,15052.096769066666,1671630281.259,533,103315,59043
228034,15052.110759333333,1671630281.259,534,103315,59039
228034,15052.110759333333,1671630281.259,534,103315,59039
228035,15052.1247496,1671630281.259,534,103386,59060
228035,15052.1247496,1671630281.259,534,103386,59060
228036,15052.140718466666,1671630281.355,534,103367,59056
228036,15052.140718466666,1671630281.355,534,103367,59056
228037,15052.156687333332,1671630281.355,533,103388,59046
228037,15052.156687333332,1671630281.355,533,103388,59046
228038,15052.1726562,1671630281.355,535,103363,59036
228038,15052.1726562,1671630281.355,535,103363,59036
228039,15052.188625066667,1671630281.355,532,103316,59051
228039,15052.188625066667,1671630281.355,532,103316,59051
228040,15052.204593933333,1671630281.355,533,103283,59043
228040,15052.204593933333,1671630281.355,533,103283,59043
228041,15052.2205628,1671630281.355,533,103330,59032
228041,15052.2205628,1671630281.355,533,103330,59032
228042,15052.236091366667,1671630281.448,533,103308,59032
228042,15052.236091366667,1671630281.448,533,103308,59032
228043,15052.251619933333,1671630281.448,534,103393,59041
228043,15052.251619933333,1671630281.448,534,103393,59041
228044,15052.2671485,1671630281.448,534,103361,59051
228044,15052.2671485,1671630281.448,534,103361,59051
228045,15052.282677066667,1671630281.448,534,103375,59033
228045,15052.282677066667,1671630281.448,534,103375,59033
228046,15052.298205633335,1671630281.448,534,103354,59024
228046,15052.298205633335,1671630281.448,534,103354,59024
228047,15052.3137342,1671630281.448,535,103350,59022
228047,15052.3137342,1671630281.448,535,103350,59022
228048,15052.330846666668,1671630281.551,532,103438,59059
228048,15052.330846666668,1671630281.551,532,103438,59059
228049,15052.347959133334,1671630281.551,532,103329,59044
228049,15052.347959133334,1671630281.551,532,103329,59044
228050,15052.365071600001,1671630281.551,533,103440,59057
228050,15052.365071600001,1671630281.551,533,103440,59057
228051,15052.382184066666,1671630281.551,534,103381,59054
228051,15052.382184066666,1671630281.551,534,103381,59054
228052,15052.399296533333,1671630281.551,533,103441,59050
228052,15052.399296533333,1671630281.551,533,103441,59050
228053,15052.416409,1671630281.551,533,103437,59066
228053,15052.416409,1671630281.551,533,103437,59066
228054,15052.4307613,1671630281.637,534,103352,59047
228054,15052.4307613,1671630281.637,534,103352,59047
228055,15052.445113599999,1671630281.637,531,103416,59025
228055,15052.445113599999,1671630281.637,531,103416,59025
228056,15052.4594659,1671630281.637,533,103326,59002
228056,15052.4594659,1671630281.637,533,103326,59002
228057,15052.4738182,1671630281.637,531,103322,59004
228057,15052.4738182,1671630281.637,531,103322,59004
228058,15052.488170499999,1671630281.637,532,103331,58994
228058,15052.488170499999,1671630281.637,532,103331,58994
228059,15052.5025228,1671630281.637,534,103306,58998
228059,15052.5025228,1671630281.637,534,103306,58998
228060,15052.517855783333,1671630281.729,534,103277,59002
228060,15052.517855783333,1671630281.729,534,103277,59002
228061,15052.533188766667,1671630281.729,534,103334,58985
228061,15052.533188766667,1671630281.729,534,103334,58985
228062,15052.548521749999,1671630281.729,534,103210,58994
228062,15052.548521749999,1671630281.729,534,103210,58994
228063,15052.563854733333,1671630281.729,534,103261,58990
228063,15052.563854733333,1671630281.729,534,103261,58990
228064,15052.573139634236,1671630281.729,532,103263,58973
228064,15052.580299832389,1671630281.729,532,103263,58973
228065,15052.587460030541,1671630281.729,532,103253,58970
228065,15052.594620228694,1671630281.729,532,103253,58970
228066,15052.601780426847,1671630281.83,534,103281,58969
228066,15052.608940625,1671630281.83,534,103281,58969
228067,15052.616100823152,1671630281.83,533,103214,58941
228067,15052.623261021305,1671630281.83,533,103214,58941
228068,15052.630421219457,1671630281.83,532,103303,58994
228068,15052.63758141761,1671630281.83,532,103303,58994
228069,15052.644741615763,1671630281.83,534,103221,58959
228069,15052.651901813915,1671630281.83,534,103221,58959
228070,15052.659062012068,1671630281.83,533,103279,58972
228070,15052.66622221022,1671630281.83,533,103279,58972
228071,15052.673382408373,1671630281.83,533,103242,58961
228071,15052.680542606526,1671630281.83,533,103242,58961
228072,15052.687702804678,1671630281.924,532,103264,58954
228072,15052.694863002831,1671630281.924,532,103264,58954
228073,15052.702023200984,1671630281.924,532,103248,58971
228073,15052.709183399136,1671630281.924,532,103248,58971
228074,15052.736959703123,1671630281.924,533,103106,58934
228074,15052.744469740246,1671630281.924,533,103106,58934
228075,15052.75197977737,1671630281.924,533,103241,58931
228075,15052.759489814493,1671630281.924,533,103241,58931
228076,15052.766999851616,1671630281.924,532,103244,58943
228076,15052.774509888739,1671630281.924,532,103244,58943
228077,15052.782019925862,1671630281.924,533,103148,58928
228077,15052.789529962985,1671630281.924,533,103148,58928
228078,15052.797040000109,1671630282.014,533,103217,58941
228078,15052.804550037232,1671630282.014,533,103217,58941
228079,15052.812060074355,1671630282.014,532,103230,58942
228079,15052.819570111478,1671630282.014,532,103230,58942
228080,15052.827080148601,1671630282.014,532,103235,58930
228080,15052.834590185725,1671630282.014,532,103235,58930
228081,15052.842100222848,1671630282.014,531,103221,58929
228081,15052.849610259971,1671630282.014,531,103221,58929
228082,15052.857120297094,1671630282.014,533,103218,58928
228082,15052.864630334218,1671630282.014,533,103218,58928
228083,15052.87214037134,1671630282.014,535,103136,58929
228083,15052.879650408464,1671630282.014,535,103136,58929
228084,15052.888901449312,1671630282.113,532,103200,58919
228084,15052.895935507151,1671630282.113,532,103200,58919
228085,15052.90296956499,1671630282.113,534,103219,58915
228085,15052.910003622828,1671630282.113,534,103219,58915
228086,15052.917037680667,1671630282.113,533,103139,58902
228086,15052.924071738506,1671630282.113,533,103139,58902
228087,15052.931105796344,1671630282.113,533,103202,58928
228087,15052.938139854183,1671630282.113,533,103202,58928
228088,15052.945173912021,1671630282.113,531,103195,58915
228088,15052.95220796986,1671630282.113,531,103195,58915
228089,15052.959242027699,1671630282.113,531,103251,58919
228089,15052.966276085537,1671630282.113,531,103251,58919
228090,15052.973310143376,1671630282.214,531,103240,58927
228090,15052.980344201214,1671630282.214,531,103240,58927
228091,15052.987378259053,1671630282.214,531,103276,58937
228091,15052.994412316892,1671630282.214,531,103276,58937
228092,15053.00144637473,1671630282.214,533,103158,58907
228092,15053.008480432569,1671630282.214,533,103158,58907
228093,15053.015514490407,1671630282.214,533,103262,58910
228093,15053.022548548246,1671630282.214,533,103262,58910
228094,15053.056768458604,1671630282.214,532,103138,58898
228094,15053.064687345835,1671630282.214,532,103138,58898
228095,15053.072606233067,1671630282.214,532,103305,58923
228095,15053.080525120298,1671630282.214,532,103305,58923
228096,15053.08844400753,1671630282.32,531,103293,58905
228096,15053.096362894761,1671630282.32,531,103293,58905
228097,15053.104281781993,1671630282.32,530,103226,58910
228097,15053.112200669224,1671630282.32,530,103226,58910
228098,15053.120119556455,1671630282.32,532,103252,58910
228098,15053.128038443687,1671630282.32,532,103252,58910
228099,15053.135957330918,1671630282.32,531,103305,58946
228099,15053.14387621815,1671630282.32,531,103305,58946
228100,15053.151795105381,1671630282.32,532,103308,58936
228100,15053.159713992613,1671630282.32,532,103308,58936
228101,15053.167632879844,1671630282.32,532,103241,58929
228101,15053.175551767075,1671630282.32,532,103241,58929
228102,15053.183470654307,1671630282.381,533,103269,58922
228102,15053.191389541538,1671630282.381,533,103269,58922
228103,15053.19930842877,1671630282.381,530,103370,58938
228103,15053.207227316001,1671630282.381,530,103370,58938
228104,15053.214504506339,1671630282.381,530,103263,58942
228104,15053.220316648421,1671630282.381,530,103263,58942
228105,15053.226128790504,1671630282.381,530,103299,58918
228105,15053.231940932586,1671630282.381,530,103299,58918
228106,15053.237753074669,1671630282.381,531,103346,58943
228106,15053.243565216751,1671630282.381,531,103346,58943
228107,15053.249377358834,1671630282.381,533,103291,58930
228107,15053.255189500916,1671630282.381,533,103291,58930
228108,15053.261001642999,1671630282.479,533,103296,58915
228108,15053.266813785081,1671630282.479,533,103296,58915
228109,15053.272625927164,1671630282.479,533,103304,58922
228109,15053.278438069246,1671630282.479,533,103304,58922
228110,15053.284250211329,1671630282.479,531,103339,58942
228110,15053.290062353411,1671630282.479,531,103339,58942
228111,15053.295874495494,1671630282.479,532,103319,58942
228111,15053.301686637576,1671630282.479,532,103319,58942
228112,15053.307498779659,1671630282.479,531,103359,58957
228112,15053.313310921742,1671630282.479,531,103359,58957
228113,15053.319123063824,1671630282.479,531,103303,58938
228113,15053.324935205907,1671630282.479,531,103303,58938
228114,15053.354320225371,1671630282.577,532,103340,58917
228114,15053.361894577623,1671630282.577,532,103340,58917
228115,15053.369468929875,1671630282.577,532,103383,58928
228115,15053.377043282127,1671630282.577,532,103383,58928
228116,15053.38461763438,1671630282.577,532,103352,58916
228116,15053.392191986632,1671630282.577,532,103352,58916
228117,15053.399766338884,1671630282.577,532,103287,58899
228117,15053.407340691136,1671630282.577,532,103287,58899
228118,15053.414915043388,1671630282.577,532,103272,58894
228118,15053.42248939564,1671630282.577,532,103272,58894
228119,15053.430063747892,1671630282.577,532,103151,58845
228119,15053.437638100144,1671630282.577,532,103151,58845
228120,15053.445212452396,1671630282.677,530,103209,58869
228120,15053.452786804648,1671630282.677,530,103209,58869
228121,15053.4603611569,1671630282.677,530,103185,58861
228121,15053.467935509152,1671630282.677,530,103185,58861
228122,15053.475509861404,1671630282.677,530,103160,58866
228122,15053.483084213656,1671630282.677,530,103160,58866
228123,15053.490658565908,1671630282.677,532,103151,58837
228123,15053.49823291816,1671630282.677,532,103151,58837
228124,15053.519783632186,1671630282.677,531,103192,58865
228124,15053.527618098282,1671630282.677,531,103192,58865
228125,15053.535452564378,1671630282.677,534,103084,58825
228125,15053.543287030474,1671630282.677,534,103084,58825
228126,15053.55112149657,1671630282.766,533,103189,58857
228126,15053.558955962666,1671630282.766,533,103189,58857
228127,15053.566790428762,1671630282.766,532,103209,58866
228127,15053.574624894858,1671630282.766,532,103209,58866
228128,15053.582459360954,1671630282.766,532,103108,58843
228128,15053.59029382705,1671630282.766,532,103108,58843
228129,15053.598128293146,1671630282.766,532,103049,58840
228129,15053.605962759242,1671630282.766,532,103049,58840
228130,15053.613797225338,1671630282.766,531,103178,58831
228130,15053.621631691434,1671630282.766,531,103178,58831
228131,15053.62946615753,1671630282.766,532,103182,58829
228131,15053.637300623626,1671630282.766,532,103182,58829
228132,15053.645135089722,1671630282.853,533,103098,58847
228132,15053.652969555818,1671630282.853,533,103098,58847
228133,15053.660804021914,1671630282.853,534,103178,58838
228133,15053.66863848801,1671630282.853,534,103178,58838
228134,15053.669645421338,1671630282.853,532,103120,58825
228134,15053.676511509053,1671630282.853,532,103120,58825
228135,15053.683377596768,1671630282.853,532,103097,58801
228135,15053.690243684483,1671630282.853,532,103097,58801
228136,15053.697109772198,1671630282.853,531,103049,58808
228136,15053.703975859913,1671630282.853,531,103049,58808
228137,15053.710841947628,1671630282.853,529,103083,58804
228137,15053.717708035343,1671630282.853,529,103083,58804
228138,15053.724574123058,1671630282.959,530,103081,58802
228138,15053.731440210773,1671630282.959,530,103081,58802
228139,15053.738306298488,1671630282.959,532,103076,58803
228139,15053.745172386203,1671630282.959,532,103076,58803
228140,15053.752038473918,1671630282.959,531,103062,58795
228140,15053.758904561633,1671630282.959,531,103062,58795
228141,15053.765770649348,1671630282.959,532,103112,58820
228141,15053.772636737063,1671630282.959,532,103112,58820
228142,15053.779502824778,1671630282.959,532,103020,58784
228142,15053.786368912493,1671630282.959,532,103020,58784
228143,15053.793235000208,1671630282.959,532,103078,58803
228143,15053.800101087923,1671630282.959,532,103078,58803
228144,15053.835210650734,1671630283.048,530,103075,58785
228144,15053.843431094048,1671630283.048,530,103075,58785
228145,15053.851651537363,1671630283.048,530,103184,58806
228145,15053.859871980678,1671630283.048,530,103184,58806
228146,15053.868092423992,1671630283.048,532,103014,58787
228146,15053.876312867307,1671630283.048,532,103014,58787
228147,15053.884533310622,1671630283.048,531,103096,58805
228147,15053.892753753937,1671630283.048,531,103096,58805
228148,15053.900974197251,1671630283.048,531,103120,58810
228148,15053.909194640566,1671630283.048,531,103120,58810
228149,15053.91741508388,1671630283.048,533,103084,58780
228149,15053.925635527195,1671630283.048,533,103084,58780
228150,15053.93385597051,1671630283.135,531,103105,58782
228150,15053.942076413825,1671630283.135,531,103105,58782
228151,15053.95029685714,1671630283.135,532,103142,58812
228151,15053.958517300454,1671630283.135,532,103142,58812
228152,15053.966737743769,1671630283.135,531,103008,58783
228152,15053.974958187084,1671630283.135,531,103008,58783
228153,15053.983178630398,1671630283.135,531,103159,58806
228153,15053.991399073713,1671630283.135,531,103159,58806
228154,15053.98039879161,1671630283.135,531,103052,58798
228154,15053.987172133244,1671630283.135,531,103052,58798
228155,15053.993945474878,1671630283.135,532,102991,58803
228155,15054.000718816513,1671630283.135,532,102991,58803
228156,15054.007492158147,1671630283.238,532,103117,58799
228156,15054.014265499782,1671630283.238,532,103117,58799
228157,15054.021038841416,1671630283.238,533,103207,58832
228157,15054.02781218305,1671630283.238,533,103207,58832
228158,15054.034585524685,1671630283.238,531,103215,58815
228158,15054.04135886632,1671630283.238,531,103215,58815
228159,15054.048132207954,1671630283.238,532,103149,58808
228159,15054.054905549589,1671630283.238,532,103149,58808
228160,15054.061678891223,1671630283.238,531,103128,58798
228160,15054.068452232857,1671630283.238,531,103128,58798
228161,15054.075225574492,1671630283.238,530,103169,58831
228161,15054.081998916126,1671630283.238,530,103169,58831
228162,15054.08877225776,1671630283.346,531,103147,58813
228162,15054.095545599395,1671630283.346,531,103147,58813
228163,15054.10231894103,1671630283.346,531,103194,58820
228163,15054.109092282664,1671630283.346,531,103194,58820
228164,15054.150409719012,1671630283.346,531,103106,58807
228164,15054.158771041315,1671630283.346,531,103106,58807
228165,15054.167132363618,1671630283.346,532,103205,58834
228165,15054.175493685922,1671630283.346,532,103205,58834
228166,15054.183855008225,1671630283.346,532,103225,58834
228166,15054.192216330528,1671630283.346,532,103225,58834
228167,15054.200577652831,1671630283.346,531,103159,58817
228167,15054.208938975135,1671630283.346,531,103159,58817
228168,15054.217300297438,1671630283.437,530,103155,58826
228168,15054.225661619741,1671630283.437,530,103155,58826
228169,15054.234022942044,1671630283.437,530,103233,58815
228169,15054.242384264347,1671630283.437,530,103233,58815
228170,15054.25074558665,1671630283.437,529,103197,58829
228170,15054.259106908954,1671630283.437,529,103197,58829
228171,15054.267468231257,1671630283.437,531,103237,58848
228171,15054.27582955356,1671630283.437,531,103237,58848
228172,15054.284190875864,1671630283.437,530,103283,58868
228172,15054.292552198167,1671630283.437,530,103283,58868
228173,15054.30091352047,1671630283.437,531,103289,58854
228173,15054.309274842773,1671630283.437,531,103289,58854
228174,15054.312426778397,1671630283.515,531,103215,58838
228174,15054.319550988075,1671630283.515,531,103215,58838
228175,15054.326675197754,1671630283.515,530,103325,58864
228175,15054.333799407432,1671630283.515,530,103325,58864
228176,15054.34092361711,1671630283.515,531,103261,58826
228176,15054.348047826788,1671630283.515,531,103261,58826
228177,15054.355172036467,1671630283.515,530,103245,58854
228177,15054.362296246145,1671630283.515,530,103245,58854
228178,15054.369420455823,1671630283.515,530,103265,58833
228178,15054.376544665502,1671630283.515,530,103265,58833
228179,15054.38366887518,1671630283.515,532,103288,58822
228179,15054.390793084858,1671630283.515,532,103288,58822
228180,15054.397917294536,1671630283.604,531,103214,58811
228180,15054.405041504215,1671630283.604,531,103214,58811
228181,15054.412165713893,1671630283.604,532,103222,58807
228181,15054.419289923571,1671630283.604,532,103222,58807
228182,15054.42641413325,1671630283.604,531,103151,58776
228182,15054.433538342928,1671630283.604,531,103151,58776
228183,15054.440662552606,1671630283.604,532,103131,58797
228183,15054.447786762285,1671630283.604,532,103131,58797
228184,15054.44888960355,1671630283.604,532,103140,58781
228184,15054.455727969042,1671630283.604,532,103140,58781
228185,15054.462566334534,1671630283.604,529,103106,58794
228185,15054.469404700027,1671630283.604,529,103106,58794
228186,15054.47624306552,1671630283.704,531,103152,58790
228186,15054.483081431012,1671630283.704,531,103152,58790
228187,15054.489919796504,1671630283.704,529,103172,58789
228187,15054.496758161997,1671630283.704,529,103172,58789
228188,15054.50359652749,1671630283.704,530,103171,58822
228188,15054.510434892982,1671630283.704,530,103171,58822
228189,15054.517273258474,1671630283.704,531,103139,58791
228189,15054.524111623967,1671630283.704,531,103139,58791
228190,15054.53094998946,1671630283.704,530,103062,58750
228190,15054.537788354952,1671630283.704,530,103062,58750
228191,15054.544626720444,1671630283.704,531,103100,58801
228191,15054.551465085937,1671630283.704,531,103100,58801
228192,15054.55830345143,1671630283.801,530,103060,58757
228192,15054.565141816922,1671630283.801,530,103060,58757
228193,15054.571980182414,1671630283.801,530,103073,58756
228193,15054.578818547907,1671630283.801,530,103073,58756
228194,15054.612400401867,1671630283.801,529,103023,58768
228194,15054.62006836753,1671630283.801,529,103023,58768
228195,15054.627736333194,1671630283.801,531,103068,58763
228195,15054.635404298857,1671630283.801,531,103068,58763
228196,15054.64307226452,1671630283.801,531,102939,58769
228196,15054.650740230183,1671630283.801,531,102939,58769
228197,15054.658408195846,1671630283.801,533,102990,58742
228197,15054.66607616151,1671630283.801,533,102990,58742
228198,15054.673744127173,1671630283.888,531,103054,58754
228198,15054.681412092836,1671630283.888,531,103054,58754
228199,15054.689080058499,1671630283.888,533,103001,58743
228199,15054.696748024162,1671630283.888,533,103001,58743
228200,15054.704415989825,1671630283.888,532,102978,58730
228200,15054.712083955488,1671630283.888,532,102978,58730
228201,15054.719751921151,1671630283.888,530,102983,58736
228201,15054.727419886814,1671630283.888,530,102983,58736
228202,15054.735087852478,1671630283.888,530,102906,58726
228202,15054.74275581814,1671630283.888,530,102906,58726
228203,15054.750423783804,1671630283.888,531,103022,58728
228203,15054.758091749467,1671630283.888,531,103022,58728
228204,15054.762695813082,1671630283.978,532,102935,58740
228204,15054.769478977998,1671630283.978,532,102935,58740
228205,15054.776262142914,1671630283.978,534,102990,58723
228205,15054.78304530783,1671630283.978,534,102990,58723
228206,15054.789828472745,1671630283.978,532,102929,58711
228206,15054.796611637661,1671630283.978,532,102929,58711
228207,15054.803394802577,1671630283.978,533,103001,58734
228207,15054.810177967493,1671630283.978,533,103001,58734
228208,15054.816961132408,1671630283.978,532,103014,58744
228208,15054.823744297324,1671630283.978,532,103014,58744
228209,15054.83052746224,1671630283.978,531,102988,58734
228209,15054.837310627156,1671630283.978,531,102988,58734
228210,15054.844093792071,1671630284.084,531,102998,58740
228210,15054.850876956987,1671630284.084,531,102998,58740
228211,15054.857660121903,1671630284.084,531,103060,58758
228211,15054.864443286819,1671630284.084,531,103060,58758
228212,15054.871226451734,1671630284.084,531,102956,58754
228212,15054.87800961665,1671630284.084,531,102956,58754
228213,15054.884792781566,1671630284.084,533,103053,58759
228213,15054.891575946482,1671630284.084,533,103053,58759
228214,15054.925456863939,1671630284.084,533,102980,58725
228214,15054.933654651622,1671630284.084,533,102980,58725
228215,15054.941852439306,1671630284.084,532,103045,58742
228215,15054.95005022699,1671630284.084,532,103045,58742
228216,15054.958248014673,1671630284.179,530,103004,58753
228216,15054.966445802356,1671630284.179,530,103004,58753
228217,15054.97464359004,1671630284.179,530,103053,58750
228217,15054.982841377723,1671630284.179,530,103053,58750
228218,15054.991039165407,1671630284.179,529,103039,58745
228218,15054.99923695309,1671630284.179,529,103039,58745
228219,15055.007434740774,1671630284.179,531,102998,58745
228219,15055.015632528457,1671630284.179,531,102998,58745
228220,15055.02383031614,1671630284.179,531,103069,58760
228220,15055.032028103824,1671630284.179,531,103069,58760
228221,15055.040225891507,1671630284.179,532,102932,58739
228221,15055.04842367919,1671630284.179,532,102932,58739
228222,15055.056621466874,1671630284.267,532,103039,58761
228222,15055.064819254558,1671630284.267,532,103039,58761
228223,15055.073017042241,1671630284.267,531,103097,58770
228223,15055.081214829925,1671630284.267,531,103097,58770
228224,15055.083282678313,1671630284.267,530,103097,58770
228224,15055.090335303736,1671630284.267,530,103097,58770
228225,15055.097387929158,1671630284.267,530,103042,58748
228225,15055.10444055458,1671630284.267,530,103042,58748
228226,15055.111493180002,1671630284.267,530,103010,58757
228226,15055.118545805424,1671630284.267,530,103010,58757
228227,15055.125598430846,1671630284.267,531,103076,58761
228227,15055.132651056269,1671630284.267,531,103076,58761
228228,15055.13970368169,1671630284.354,532,103105,58774
228228,15055.146756307113,1671630284.354,532,103105,58774
228229,15055.153808932535,1671630284.354,531,103106,58779
228229,15055.160861557957,1671630284.354,531,103106,58779
228230,15055.16791418338,1671630284.354,532,103105,58787
228230,15055.174966808801,1671630284.354,532,103105,58787
228231,15055.182019434224,1671630284.354,533,103130,58775
228231,15055.189072059646,1671630284.354,533,103130,58775
228232,15055.196124685068,1671630284.354,531,103063,58775
228232,15055.20317731049,1671630284.354,531,103063,58775
228233,15055.210229935912,1671630284.354,531,103171,58796
228233,15055.217282561334,1671630284.354,531,103171,58796
228234,15055.228103243227,1671630284.453,530,103077,58801
228234,15055.234846759115,1671630284.453,530,103077,58801
228235,15055.241590275002,1671630284.453,532,103111,58811
228235,15055.248333790889,1671630284.453,532,103111,58811
228236,15055.255077306776,1671630284.453,532,103132,58806
228236,15055.261820822663,1671630284.453,532,103132,58806
228237,15055.26856433855,1671630284.453,531,103108,58805
228237,15055.275307854437,1671630284.453,531,103108,58805
228238,15055.282051370325,1671630284.453,531,103065,58797
228238,15055.288794886212,1671630284.453,531,103065,58797
228239,15055.295538402099,1671630284.453,532,103131,58805
228239,15055.302281917986,1671630284.453,532,103131,58805
228240,15055.309025433873,1671630284.544,530,103148,58809
228240,15055.31576894976,1671630284.544,530,103148,58809
228241,15055.322512465647,1671630284.544,529,103081,58822
228241,15055.329255981535,1671630284.544,529,103081,58822
228242,15055.335999497422,1671630284.544,530,103084,58811
228242,15055.342743013309,1671630284.544,530,103084,58811
228243,15055.349486529196,1671630284.544,531,103149,58806
228243,15055.356230045083,1671630284.544,531,103149,58806
228244,15055.389097346719,1671630284.544,532,103099,58784
228244,15055.396252212888,1671630284.544,532,103099,58784
228245,15055.403407079057,1671630284.544,532,103145,58779
228245,15055.410561945226,1671630284.544,532,103145,58779
228246,15055.417716811395,1671630284.637,531,103118,58773
228246,15055.424871677564,1671630284.637,531,103118,58773
228247,15055.432026543733,1671630284.637,531,103126,58767
228247,15055.439181409902,1671630284.637,531,103126,58767
228248,15055.44633627607,1671630284.637,532,103018,58756
228248,15055.45349114224,1671630284.637,532,103018,58756
228249,15055.460646008409,1671630284.637,531,103052,58757
228249,15055.467800874578,1671630284.637,531,103052,58757
228250,15055.474955740747,1671630284.637,531,103013,58775
228250,15055.482110606916,1671630284.637,531,103013,58775
228251,15055.489265473085,1671630284.637,532,103025,58784
228251,15055.496420339254,1671630284.637,532,103025,58784
228252,15055.503575205423,1671630284.729,531,103044,58771
228252,15055.510730071592,1671630284.729,531,103044,58771
228253,15055.51788493776,1671630284.729,532,103027,58770
228253,15055.52503980393,1671630284.729,532,103027,58770
228254,15055.542629201647,1671630284.729,531,102958,58764
228254,15055.54984254721,1671630284.729,531,102958,58764
228255,15055.557055892774,1671630284.729,532,102946,58752
228255,15055.564269238337,1671630284.729,532,102946,58752
228256,15055.5714825839,1671630284.729,531,102939,58742
228256,15055.578695929464,1671630284.729,531,102939,58742
228257,15055.585909275027,1671630284.729,530,102832,58747
228257,15055.59312262059,1671630284.729,530,102832,58747
228258,15055.600335966154,1671630284.822,530,102915,58744
228258,15055.607549311717,1671630284.822,530,102915,58744
228259,15055.61476265728,1671630284.822,531,102851,58717
228259,15055.621976002843,1671630284.822,531,102851,58717
228260,15055.629189348407,1671630284.822,531,102982,58768
228260,15055.63640269397,1671630284.822,531,102982,58768
228261,15055.643616039533,1671630284.822,531,102975,58758
228261,15055.650829385097,1671630284.822,531,102975,58758
228262,15055.65804273066,1671630284.822,531,102875,58750
228262,15055.665256076223,1671630284.822,531,102875,58750
228263,15055.672469421786,1671630284.822,531,102974,58738
228263,15055.67968276735,1671630284.822,531,102974,58738
228264,15055.697609228728,1671630284.924,531,102951,58744
228264,15055.704900013956,1671630284.924,531,102951,58744
228265,15055.712190799184,1671630284.924,529,102987,58772
228265,15055.719481584412,1671630284.924,529,102987,58772
228266,15055.72677236964,1671630284.924,530,102946,58753
228266,15055.734063154869,1671630284.924,530,102946,58753
228267,15055.741353940097,1671630284.924,532,102946,58753
228267,15055.748644725325,1671630284.924,532,102946,58753
228268,15055.755935510553,1671630284.924,533,102910,58713
228268,15055.763226295781,1671630284.924,533,102910,58713
228269,15055.77051708101,1671630284.924,533,102893,58731
228269,15055.777807866238,1671630284.924,533,102893,58731
228270,15055.785098651466,1671630285.011,532,102920,58735
228270,15055.792389436694,1671630285.011,532,102920,58735
228271,15055.799680221922,1671630285.011,532,102956,58749
228271,15055.80697100715,1671630285.011,532,102956,58749
228272,15055.814261792379,1671630285.011,531,102940,58741
228272,15055.821552577607,1671630285.011,531,102940,58741
228273,15055.828843362835,1671630285.011,531,102923,58743
228273,15055.836134148063,1671630285.011,531,102923,58743
228274,15055.856826885354,1671630285.011,530,102868,58707
228274,15055.86365611141,1671630285.011,530,102868,58707
228275,15055.870485337467,1671630285.011,531,102894,58731
228275,15055.877314563524,1671630285.011,531,102894,58731
228276,15055.88414378958,1671630285.109,530,102884,58742
228276,15055.890973015637,1671630285.109,530,102884,58742
228277,15055.897802241694,1671630285.109,532,102929,58748
228277,15055.90463146775,1671630285.109,532,102929,58748
228278,15055.911460693807,1671630285.109,531,102943,58747
228278,15055.918289919864,1671630285.109,531,102943,58747
228279,15055.92511914592,1671630285.109,532,102944,58740
228279,15055.931948371977,1671630285.109,532,102944,58740
228280,15055.938777598034,1671630285.109,530,102902,58736
228280,15055.94560682409,1671630285.109,530,102902,58736
228281,15055.952436050147,1671630285.109,530,102956,58736
228281,15055.959265276204,1671630285.109,530,102956,58736
228282,15055.96609450226,1671630285.204,531,102983,58741
228282,15055.972923728317,1671630285.204,531,102983,58741
228283,15055.979752954374,1671630285.204,532,102951,58731
228283,15055.98658218043,1671630285.204,532,102951,58731
228284,15056.016431526417,1671630285.204,530,102935,58741
228284,15056.023937866954,1671630285.204,530,102935,58741
228285,15056.03144420749,1671630285.204,530,102927,58746
228285,15056.038950548027,1671630285.204,530,102927,58746
228286,15056.046456888564,1671630285.204,532,103039,58779
228286,15056.0539632291,1671630285.204,532,103039,58779
228287,15056.061469569637,1671630285.204,530,103027,58758
228287,15056.068975910173,1671630285.204,530,103027,58758
228288,15056.07648225071,1671630285.3,531,102951,58757
228288,15056.083988591246,1671630285.3,531,102951,58757
228289,15056.091494931783,1671630285.3,532,102992,58774
228289,15056.09900127232,1671630285.3,532,102992,58774
228290,15056.106507612856,1671630285.3,531,102940,58745
228290,15056.114013953393,1671630285.3,531,102940,58745
228291,15056.12152029393,1671630285.3,532,103058,58779
228291,15056.129026634466,1671630285.3,532,103058,58779
228292,15056.136532975002,1671630285.3,532,103000,58766
228292,15056.144039315539,1671630285.3,532,103000,58766
228293,15056.151545656076,1671630285.3,531,103053,58789
228293,15056.159051996612,1671630285.3,531,103053,58789
228294,15056.17557914652,1671630285.386,531,103011,58762
228294,15056.183058325623,1671630285.386,531,103011,58762
228295,15056.190537504726,1671630285.386,532,103006,58765
228295,15056.19801668383,1671630285.386,532,103006,58765
228296,15056.205495862932,1671630285.386,530,103054,58786
228296,15056.212975042035,1671630285.386,530,103054,58786
228297,15056.220454221138,1671630285.386,530,103011,58789
228297,15056.227933400241,1671630285.386,530,103011,58789
228298,15056.235412579344,1671630285.386,531,103061,58772
228298,15056.242891758448,1671630285.386,531,103061,58772
228299,15056.25037093755,1671630285.386,531,103046,58775
228299,15056.257850116654,1671630285.386,531,103046,58775
228300,15056.265329295757,1671630285.479,531,103023,58808
228300,15056.27280847486,1671630285.479,531,103023,58808
228301,15056.280287653963,1671630285.479,531,103057,58815
228301,15056.287766833066,1671630285.479,531,103057,58815
228302,15056.295246012169,1671630285.479,532,103084,58816
228302,15056.302725191272,1671630285.479,532,103084,58816
228303,15056.310204370375,1671630285.479,533,103124,58822
228303,15056.317683549478,1671630285.479,533,103124,58822
228304,15056.323487085014,1671630285.479,532,103010,58796
228304,15056.330745745929,1671630285.479,532,103010,58796
228305,15056.338004406844,1671630285.479,529,103089,58828
228305,15056.345263067758,1671630285.479,529,103089,58828
228306,15056.352521728673,1671630285.583,529,103091,58792
228306,15056.359780389588,1671630285.583,529,103091,58792
228307,15056.367039050503,1671630285.583,530,103002,58787
228307,15056.374297711418,1671630285.583,530,103002,58787
228308,15056.381556372333,1671630285.583,531,103060,58797
228308,15056.388815033248,1671630285.583,531,103060,58797
228309,15056.396073694163,1671630285.583,533,102965,58769
228309,15056.403332355078,1671630285.583,533,102965,58769
228310,15056.410591015992,1671630285.583,533,102982,58775
228310,15056.417849676907,1671630285.583,533,102982,58775
228311,15056.425108337822,1671630285.583,531,103004,58774
228311,15056.432366998737,1671630285.583,531,103004,58774
228312,15056.439625659652,1671630285.685,530,102886,58754
228312,15056.446884320567,1671630285.685,530,102886,58754
228313,15056.454142981482,1671630285.685,529,102895,58768
228313,15056.461401642397,1671630285.685,529,102895,58768
228314,15056.493010245094,1671630285.685,528,102912,58759
228314,15056.501025433012,1671630285.685,528,102912,58759
228315,15056.50904062093,1671630285.685,530,102945,58756
228315,15056.517055808847,1671630285.685,530,102945,58756
228316,15056.525070996764,1671630285.685,531,102842,58780
228316,15056.533086184681,1671630285.685,531,102842,58780
228317,15056.541101372599,1671630285.685,532,102878,58756
228317,15056.549116560516,1671630285.685,532,102878,58756
228318,15056.557131748434,1671630285.759,533,102931,58757
228318,15056.565146936351,1671630285.759,533,102931,58757
228319,15056.573162124268,1671630285.759,532,102924,58773
228319,15056.581177312186,1671630285.759,532,102924,58773
228320,15056.589192500103,1671630285.759,531,102905,58752
228320,15056.59720768802,1671630285.759,531,102905,58752
228321,15056.605222875938,1671630285.759,529,102955,58779
228321,15056.613238063856,1671630285.759,529,102955,58779
228322,15056.621253251773,1671630285.759,531,102914,58786
228322,15056.62926843969,1671630285.759,531,102914,58786
228323,15056.637283627608,1671630285.759,532,102981,58773
228323,15056.645298815525,1671630285.759,532,102981,58773
228324,15056.63239585994,1671630285.854,532,102906,58783
228324,15056.638202298895,1671630285.854,532,102906,58783
228325,15056.644008737849,1671630285.854,533,102959,58772
228325,15056.649815176803,1671630285.854,533,102959,58772
228326,15056.655621615757,1671630285.854,531,102940,58774
228326,15056.661428054711,1671630285.854,531,102940,58774
228327,15056.667234493665,1671630285.854,533,102951,58771
228327,15056.67304093262,1671630285.854,533,102951,58771
228328,15056.678847371573,1671630285.854,530,102938,58774
228328,15056.684653810527,1671630285.854,530,102938,58774
228329,15056.690460249481,1671630285.854,531,102923,58772
228329,15056.696266688436,1671630285.854,531,102923,58772
228330,15056.70207312739,1671630285.959,532,102872,58758
228330,15056.707879566344,1671630285.959,532,102872,58758
228331,15056.713686005298,1671630285.959,531,102897,58777
228331,15056.719492444252,1671630285.959,531,102897,58777
228332,15056.725298883206,1671630285.959,532,102945,58750
228332,15056.73110532216,1671630285.959,532,102945,58750
228333,15056.736911761114,1671630285.959,533,102916,58756
228333,15056.742718200068,1671630285.959,533,102916,58756
228334,15056.800447169648,1671630285.959,531,102812,58742
228334,15056.80864964627,1671630285.959,531,102812,58742
228335,15056.81685212289,1671630285.959,531,102881,58782
228335,15056.825054599512,1671630285.959,531,102881,58782
228336,15056.833257076134,1671630286.047,531,102855,58755
228336,15056.841459552756,1671630286.047,531,102855,58755
228337,15056.849662029377,1671630286.047,532,102895,58753
228337,15056.857864505999,1671630286.047,532,102895,58753
228338,15056.86606698262,1671630286.047,531,102896,58760
228338,15056.874269459242,1671630286.047,531,102896,58760
228339,15056.882471935864,1671630286.047,531,102936,58749
228339,15056.890674412485,1671630286.047,531,102936,58749
228340,15056.898876889107,1671630286.047,532,102925,58757
228340,15056.907079365728,1671630286.047,532,102925,58757
228341,15056.91528184235,1671630286.047,534,102838,58728
228341,15056.923484318972,1671630286.047,534,102838,58728
228342,15056.931686795593,1671630286.152,533,102943,58762
228342,15056.939889272215,1671630286.152,533,102943,58762
228343,15056.948091748836,1671630286.152,531,102922,58765
228343,15056.956294225458,1671630286.152,531,102922,58765
228344,15056.957545954338,1671630286.152,531,102849,58740
228344,15056.965363122787,1671630286.152,531,102849,58740
228345,15056.973180291236,1671630286.152,530,102816,58744
228345,15056.980997459685,1671630286.152,530,102816,58744
228346,15056.988814628134,1671630286.152,531,102910,58765
228346,15056.996631796583,1671630286.152,531,102910,58765
228347,15057.004448965032,1671630286.152,531,102926,58766
228347,15057.01226613348,1671630286.152,531,102926,58766
228348,15057.02008330193,1671630286.275,532,102897,58762
228348,15057.027900470379,1671630286.275,532,102897,58762
228349,15057.035717638828,1671630286.275,533,102921,58753
228349,15057.043534807277,1671630286.275,533,102921,58753
228350,15057.051351975726,1671630286.275,532,102962,58770
228350,15057.059169144175,1671630286.275,532,102962,58770
228351,15057.066986312624,1671630286.275,531,102898,58786
228351,15057.074803481073,1671630286.275,531,102898,58786
228352,15057.082620649522,1671630286.275,529,102924,58764
228352,15057.090437817971,1671630286.275,529,102924,58764
228353,15057.09825498642,1671630286.275,531,102874,58755
228353,15057.10607215487,1671630286.275,531,102874,58755
228354,15057.153128125658,1671630286.338,531,102966,58803
228354,15057.162710703855,1671630286.338,531,102966,58803
228355,15057.172293282052,1671630286.338,531,102976,58798
228355,15057.18187586025,1671630286.338,531,102976,58798
228356,15057.191458438447,1671630286.338,532,103015,58792
228356,15057.201041016644,1671630286.338,532,103015,58792
228357,15057.210623594841,1671630286.338,534,102938,58775
228357,15057.220206173039,1671630286.338,534,102938,58775
228358,15057.229788751236,1671630286.338,532,102949,58805
228358,15057.239371329433,1671630286.338,532,102949,58805
228359,15057.24895390763,1671630286.338,531,103052,58808
228359,15057.258536485828,1671630286.338,531,103052,58808
228360,15057.268119064025,1671630286.419,530,103043,58808
228360,15057.277701642222,1671630286.419,530,103043,58808
228361,15057.28728422042,1671630286.419,531,103011,58822
228361,15057.296866798617,1671630286.419,531,103011,58822
228362,15057.306449376814,1671630286.419,531,103053,58853
228362,15057.316031955012,1671630286.419,531,103053,58853
228363,15057.325614533209,1671630286.419,532,103066,58831
228363,15057.335197111406,1671630286.419,532,103066,58831
228364,15057.265568761792,1671630286.419,531,103123,58838
228364,15057.27177018672,1671630286.419,531,103123,58838
228365,15057.27797161165,1671630286.419,532,103024,58811
228365,15057.284173036578,1671630286.419,532,103024,58811
228366,15057.290374461507,1671630286.509,532,103045,58828
228366,15057.296575886436,1671630286.509,532,103045,58828
228367,15057.302777311364,1671630286.509,532,103020,58828
228367,15057.308978736293,1671630286.509,532,103020,58828
228368,15057.315180161222,1671630286.509,530,103130,58844
228368,15057.32138158615,1671630286.509,530,103130,58844
228369,15057.32758301108,1671630286.509,529,103017,58806
228369,15057.333784436009,1671630286.509,529,103017,58806
228370,15057.339985860937,1671630286.509,529,102968,58784
228370,15057.346187285866,1671630286.509,529,102968,58784
228371,15057.352388710795,1671630286.509,532,102959,58794
228371,15057.358590135724,1671630286.509,532,102959,58794
228372,15057.364791560653,1671630286.604,531,102946,58760
228372,15057.370992985581,1671630286.604,531,102946,58760
228373,15057.37719441051,1671630286.604,532,102958,58807
228373,15057.383395835439,1671630286.604,532,102958,58807
228374,15057.415641002963,1671630286.604,531,102849,58790
228374,15057.422940045944,1671630286.604,531,102849,58790
228375,15057.430239088926,1671630286.604,531,102957,58815
228375,15057.437538131908,1671630286.604,531,102957,58815
228376,15057.44483717489,1671630286.604,529,102930,58770
228376,15057.452136217871,1671630286.604,529,102930,58770
228377,15057.459435260853,1671630286.604,531,102873,58778
228377,15057.466734303835,1671630286.604,531,102873,58778
228378,15057.474033346816,1671630286.697,529,102880,58775
228378,15057.481332389798,1671630286.697,529,102880,58775
228379,15057.48863143278,1671630286.697,532,102839,58798
228379,15057.495930475761,1671630286.697,532,102839,58798
228380,15057.503229518743,1671630286.697,530,102875,58790
228380,15057.510528561725,1671630286.697,530,102875,58790
228381,15057.517827604706,1671630286.697,533,102892,58794
228381,15057.525126647688,1671630286.697,533,102892,58794
228382,15057.53242569067,1671630286.697,532,102871,58787
228382,15057.539724733651,1671630286.697,532,102871,58787
228383,15057.547023776633,1671630286.697,533,102854,58769
228383,15057.554322819615,1671630286.697,533,102854,58769
228384,15057.572844736736,1671630286.799,532,102836,58784
228384,15057.580181090276,1671630286.799,532,102836,58784
228385,15057.587517443815,1671630286.799,530,102795,58752
228385,15057.594853797355,1671630286.799,530,102795,58752
228386,15057.602190150894,1671630286.799,531,102783,58753
228386,15057.609526504433,1671630286.799,531,102783,58753
228387,15057.616862857973,1671630286.799,531,102836,58777
228387,15057.624199211512,1671630286.799,531,102836,58777
228388,15057.631535565051,1671630286.799,531,102842,58764
228388,15057.63887191859,1671630286.799,531,102842,58764
228389,15057.64620827213,1671630286.799,531,102863,58788
228389,15057.65354462567,1671630286.799,531,102863,58788
228390,15057.660880979209,1671630286.884,531,102801,58749
228390,15057.668217332748,1671630286.884,531,102801,58749
228391,15057.675553686287,1671630286.884,530,102751,58741
228391,15057.682890039827,1671630286.884,530,102751,58741
228392,15057.690226393366,1671630286.884,531,102746,58742
228392,15057.697562746906,1671630286.884,531,102746,58742
228393,15057.704899100445,1671630286.884,530,102780,58755
228393,15057.712235453984,1671630286.884,530,102780,58755
228394,15057.730447774404,1671630286.884,530,102830,58769
228394,15057.737152487969,1671630286.884,530,102830,58769
228395,15057.743857201534,1671630286.884,530,102847,58773
228395,15057.7505619151,1671630286.884,530,102847,58773
228396,15057.757266628665,1671630286.979,529,102786,58758
228396,15057.76397134223,1671630286.979,529,102786,58758
228397,15057.770676055796,1671630286.979,531,102683,58736
228397,15057.777380769361,1671630286.979,531,102683,58736
228398,15057.784085482926,1671630286.979,531,102838,58760
228398,15057.790790196492,1671630286.979,531,102838,58760
228399,15057.797494910057,1671630286.979,531,102753,58749
228399,15057.804199623622,1671630286.979,531,102753,58749
228400,15057.810904337188,1671630286.979,530,102735,58757
228400,15057.817609050753,1671630286.979,530,102735,58757
228401,15057.824313764319,1671630286.979,530,102718,58745
228401,15057.831018477884,1671630286.979,530,102718,58745
228402,15057.83772319145,1671630287.08,531,102831,58757
228402,15057.844427905015,1671630287.08,531,102831,58757
228403,15057.85113261858,1671630287.08,530,102804,58764
228403,15057.857837332145,1671630287.08,530,102804,58764
228404,15057.888672617799,1671630287.08,532,102823,58745
228404,15057.896443224692,1671630287.08,532,102823,58745
228405,15057.904213831585,1671630287.08,532,102756,58753
228405,15057.911984438479,1671630287.08,532,102756,58753
228406,15057.919755045372,1671630287.08,531,102888,58777
228406,15057.927525652265,1671630287.08,531,102888,58777
228407,15057.935296259158,1671630287.08,532,102775,58765
228407,15057.943066866052,1671630287.08,532,102775,58765
228408,15057.950837472945,1671630287.175,530,102803,58779
228408,15057.958608079838,1671630287.175,530,102803,58779
228409,15057.966378686731,1671630287.175,530,102833,58797
228409,15057.974149293625,1671630287.175,530,102833,58797
228410,15057.981919900518,1671630287.175,531,102868,58766
228410,15057.989690507411,1671630287.175,531,102868,58766
228411,15057.997461114304,1671630287.175,531,102919,58776
228411,15058.005231721198,1671630287.175,531,102919,58776
228412,15058.01300232809,1671630287.175,531,102816,58780
228412,15058.020772934984,1671630287.175,531,102816,58780
228413,15058.028543541877,1671630287.175,532,102867,58771
228413,15058.03631414877,1671630287.175,532,102867,58771
228414,15058.050440747966,1671630287.265,530,102820,58786
228414,15058.057834075233,1671630287.265,530,102820,58786
228415,15058.0652274025,1671630287.265,531,102873,58791
228415,15058.072620729767,1671630287.265,531,102873,58791
228416,15058.080014057034,1671630287.265,529,102820,58798
228416,15058.0874073843,1671630287.265,529,102820,58798
228417,15058.094800711568,1671630287.265,531,102866,58781
228417,15058.102194038835,1671630287.265,531,102866,58781
228418,15058.109587366102,1671630287.265,530,102775,58777
228418,15058.116980693369,1671630287.265,530,102775,58777
228419,15058.124374020636,1671630287.265,531,102761,58784
228419,15058.131767347902,1671630287.265,531,102761,58784
228420,15058.13916067517,1671630287.348,530,102839,58796
228420,15058.146554002436,1671630287.348,530,102839,58796
228421,15058.153947329703,1671630287.348,530,102914,58810
228421,15058.16134065697,1671630287.348,530,102914,58810
228422,15058.168733984237,1671630287.348,531,102880,58804
228422,15058.176127311504,1671630287.348,531,102880,58804
228423,15058.183520638771,1671630287.348,532,102940,58786
228423,15058.190913966038,1671630287.348,532,102940,58786
228424,15058.194337153567,1671630287.348,530,102759,58803
228424,15058.200861691335,1671630287.348,530,102759,58803
228425,15058.207386229104,1671630287.348,532,102833,58802
228425,15058.213910766872,1671630287.348,532,102833,58802
228426,15058.22043530464,1671630287.457,529,102879,58791
228426,15058.226959842408,1671630287.457,529,102879,58791
228427,15058.233484380176,1671630287.457,532,102914,58812
228427,15058.240008917945,1671630287.457,532,102914,58812
228428,15058.246533455713,1671630287.457,531,102941,58830
228428,15058.253057993481,1671630287.457,531,102941,58830
228429,15058.25958253125,1671630287.457,532,102920,58800
228429,15058.266107069017,1671630287.457,532,102920,58800
228430,15058.272631606786,1671630287.457,532,102903,58832
228430,15058.279156144554,1671630287.457,532,102903,58832
228431,15058.285680682322,1671630287.457,531,102874,58841
228431,15058.29220522009,1671630287.457,531,102874,58841
228432,15058.298729757858,1671630287.542,531,102869,58804
228432,15058.305254295627,1671630287.542,531,102869,58804
228433,15058.311778833395,1671630287.542,530,102851,58784
228433,15058.318303371163,1671630287.542,530,102851,58784
228434,15058.360958402178,1671630287.542,530,102835,58786
228434,15058.368186128071,1671630287.542,530,102835,58786
228435,15058.375413853964,1671630287.542,530,102849,58794
228435,15058.382641579858,1671630287.542,530,102849,58794
228436,15058.38986930575,1671630287.542,531,102790,58779
228436,15058.397097031644,1671630287.542,531,102790,58779
228437,15058.404324757537,1671630287.542,531,102749,58774
228437,15058.41155248343,1671630287.542,531,102749,58774
228438,15058.418780209324,1671630287.632,530,102746,58778
228438,15058.426007935217,1671630287.632,530,102746,58778
228439,15058.43323566111,1671630287.632,531,102740,58773
228439,15058.440463387004,1671630287.632,531,102740,58773
228440,15058.447691112897,1671630287.632,530,102677,58766
228440,15058.45491883879,1671630287.632,530,102677,58766
228441,15058.462146564683,1671630287.632,530,102705,58781
228441,15058.469374290577,1671630287.632,530,102705,58781
228442,15058.47660201647,1671630287.632,528,102800,58776
228442,15058.483829742363,1671630287.632,528,102800,58776
228443,15058.491057468256,1671630287.632,531,102627,58761
228443,15058.49828519415,1671630287.632,531,102627,58761
228444,15058.50696747523,1671630287.729,531,102682,58769
228444,15058.513964260203,1671630287.729,531,102682,58769
228445,15058.520961045175,1671630287.729,531,102624,58764
228445,15058.527957830147,1671630287.729,531,102624,58764
228446,15058.53495461512,1671630287.729,530,102731,58771
228446,15058.541951400091,1671630287.729,530,102731,58771
228447,15058.548948185064,1671630287.729,531,102694,58738
228447,15058.555944970036,1671630287.729,531,102694,58738
228448,15058.562941755008,1671630287.729,529,102651,58746
228448,15058.56993853998,1671630287.729,529,102651,58746
228449,15058.576935324953,1671630287.729,530,102636,58747
228449,15058.583932109925,1671630287.729,530,102636,58747
228450,15058.590928894897,1671630287.835,529,102695,58745
228450,15058.59792567987,1671630287.835,529,102695,58745
228451,15058.604922464841,1671630287.835,529,102697,58754
228451,15058.611919249814,1671630287.835,529,102697,58754
228452,15058.618916034786,1671630287.835,530,102556,58725
228452,15058.625912819758,1671630287.835,530,102556,58725
228453,15058.63290960473,1671630287.835,530,102683,58741
228453,15058.639906389702,1671630287.835,530,102683,58741
228454,15058.676343927451,1671630287.835,531,102554,58724
228454,15058.684630254693,1671630287.835,531,102554,58724
228455,15058.692916581935,1671630287.835,532,102552,58710
228455,15058.701202909177,1671630287.835,532,102552,58710
228456,15058.709489236418,1671630287.927,529,102654,58732
228456,15058.71777556366,1671630287.927,529,102654,58732
228457,15058.726061890902,1671630287.927,531,102554,58705
228457,15058.734348218144,1671630287.927,531,102554,58705
228458,15058.742634545386,1671630287.927,530,102615,58710
228458,15058.750920872628,1671630287.927,530,102615,58710
228459,15058.75920719987,1671630287.927,530,102561,58715
228459,15058.767493527112,1671630287.927,530,102561,58715
228460,15058.775779854353,1671630287.927,532,102598,58722
228460,15058.784066181595,1671630287.927,532,102598,58722
228461,15058.792352508837,1671630287.927,531,102631,58716
228461,15058.800638836079,1671630287.927,531,102631,58716
228462,15058.808925163321,1671630288.013,532,102618,58732
228462,15058.817211490563,1671630288.013,532,102618,58732
228463,15058.825497817805,1671630288.013,530,102599,58710
228463,15058.833784145047,1671630288.013,530,102599,58710
228464,15058.830421238135,1671630288.013,529,102640,58709
228464,15058.837247894871,1671630288.013,529,102640,58709
228465,15058.844074551607,1671630288.013,530,102571,58714
228465,15058.850901208343,1671630288.013,530,102571,58714
228466,15058.85772786508,1671630288.013,529,102663,58738
228466,15058.864554521815,1671630288.013,529,102663,58738
228467,15058.871381178551,1671630288.013,529,102664,58742
228467,15058.878207835287,1671630288.013,529,102664,58742
228468,15058.885034492023,1671630288.105,531,102624,58732
228468,15058.891861148759,1671630288.105,531,102624,58732
228469,15058.898687805495,1671630288.105,531,102523,58714
228469,15058.90551446223,1671630288.105,531,102523,58714
228470,15058.912341118967,1671630288.105,531,102637,58727
228470,15058.919167775703,1671630288.105,531,102637,58727
228471,15058.925994432439,1671630288.105,530,102642,58711
228471,15058.932821089174,1671630288.105,530,102642,58711
228472,15058.93964774591,1671630288.105,530,102595,58715
228472,15058.946474402646,1671630288.105,530,102595,58715
228473,15058.953301059382,1671630288.105,529,102632,58711
228473,15058.960127716118,1671630288.105,529,102632,58711
228474,15058.98000362043,1671630288.206,528,102642,58733
228474,15058.987201583739,1671630288.206,528,102642,58733
228475,15058.994399547048,1671630288.206,529,102615,58727
228475,15059.001597510356,1671630288.206,529,102615,58727
228476,15059.008795473665,1671630288.206,531,102636,58725
228476,15059.015993436973,1671630288.206,531,102636,58725
228477,15059.023191400282,1671630288.206,530,102579,58735
228477,15059.03038936359,1671630288.206,530,102579,58735
228478,15059.037587326899,1671630288.206,530,102727,58746
228478,15059.044785290207,1671630288.206,530,102727,58746
228479,15059.051983253516,1671630288.206,530,102594,58715
228479,15059.059181216824,1671630288.206,530,102594,58715
228480,15059.066379180133,1671630288.295,528,102661,58732
228480,15059.073577143441,1671630288.295,528,102661,58732
228481,15059.08077510675,1671630288.295,527,102680,58727
228481,15059.087973070058,1671630288.295,527,102680,58727
228482,15059.095171033367,1671630288.295,529,102739,58757
228482,15059.102368996675,1671630288.295,529,102739,58757
228483,15059.109566959984,1671630288.295,530,102676,58749
228483,15059.116764923292,1671630288.295,530,102676,58749
228484,15059.14039749607,1671630288.295,529,102651,58733
228484,15059.147383147618,1671630288.295,529,102651,58733
228485,15059.154368799165,1671630288.295,530,102614,58741
228485,15059.161354450713,1671630288.295,530,102614,58741
228486,15059.16834010226,1671630288.389,530,102700,58760
228486,15059.175325753808,1671630288.389,530,102700,58760
228487,15059.182311405355,1671630288.389,529,102731,58745
228487,15059.189297056902,1671630288.389,529,102731,58745
228488,15059.19628270845,1671630288.389,528,102577,58762
228488,15059.203268359997,1671630288.389,528,102577,58762
228489,15059.210254011545,1671630288.389,530,102737,58762
228489,15059.217239663092,1671630288.389,530,102737,58762
228490,15059.22422531464,1671630288.389,528,102731,58776
228490,15059.231210966187,1671630288.389,528,102731,58776
228491,15059.238196617735,1671630288.389,530,102760,58781
228491,15059.245182269282,1671630288.389,530,102760,58781
228492,15059.25216792083,1671630288.479,532,102738,58770
228492,15059.259153572377,1671630288.479,532,102738,58770
228493,15059.266139223924,1671630288.479,531,102748,58788
228493,15059.273124875472,1671630288.479,531,102748,58788
228494,15059.294228902536,1671630288.479,530,102712,58785
228494,15059.301312577672,1671630288.479,530,102712,58785
228495,15059.308396252809,1671630288.479,529,102695,58783
228495,15059.315479927945,1671630288.479,529,102695,58783
228496,15059.322563603082,1671630288.479,530,102672,58746
228496,15059.329647278219,1671630288.479,530,102672,58746
228497,15059.336730953355,1671630288.479,529,102669,58764
228497,15059.343814628492,1671630288.479,529,102669,58764
228498,15059.350898303628,1671630288.578,530,102682,58773
228498,15059.357981978765,1671630288.578,530,102682,58773
228499,15059.365065653901,1671630288.578,531,102589,58729
228499,15059.372149329038,1671630288.578,531,102589,58729
228500,15059.379233004174,1671630288.578,531,102564,58738
228500,15059.38631667931,1671630288.578,531,102564,58738
228501,15059.393400354447,1671630288.578,530,102528,58753
228501,15059.400484029584,1671630288.578,530,102528,58753
228502,15059.40756770472,1671630288.578,531,102582,58740
228502,15059.414651379857,1671630288.578,531,102582,58740
228503,15059.421735054993,1671630288.578,530,102541,58738
228503,15059.42881873013,1671630288.578,530,102541,58738
228504,15059.453669334329,1671630288.692,529,102589,58726
228504,15059.461415694435,1671630288.692,529,102589,58726
228505,15059.469162054542,1671630288.692,528,102535,58724
228505,15059.476908414648,1671630288.692,528,102535,58724
228506,15059.484654774755,1671630288.692,530,102442,58721
228506,15059.492401134861,1671630288.692,530,102442,58721
228507,15059.500147494968,1671630288.692,531,102513,58714
228507,15059.507893855074,1671630288.692,531,102513,58714
228508,15059.51564021518,1671630288.692,531,102404,58714
228508,15059.523386575287,1671630288.692,531,102404,58714
228509,15059.531132935394,1671630288.692,533,102473,58700
228509,15059.5388792955,1671630288.692,533,102473,58700
228510,15059.546625655606,1671630288.758,531,102522,58710
228510,15059.554372015713,1671630288.758,531,102522,58710
228511,15059.56211837582,1671630288.758,530,102433,58683
228511,15059.569864735926,1671630288.758,530,102433,58683
228512,15059.577611096032,1671630288.758,530,102424,58706
228512,15059.585357456139,1671630288.758,530,102424,58706
228513,15059.593103816245,1671630288.758,530,102448,58730
228513,15059.600850176352,1671630288.758,530,102448,58730
228514,15059.609253726192,1671630288.758,530,102443,58718
228514,15059.614686758745,1671630288.758,530,102443,58718
228515,15059.620119791298,1671630288.758,531,102428,58696
228515,15059.62555282385,1671630288.758,531,102428,58696
228516,15059.630985856404,1671630288.856,532,102476,58713
228516,15059.636418888957,1671630288.856,532,102476,58713
228517,15059.64185192151,1671630288.856,530,102417,58693
228517,15059.647284954062,1671630288.856,530,102417,58693
228518,15059.652717986615,1671630288.856,532,102363,58666
228518,15059.658151019168,1671630288.856,532,102363,58666
228519,15059.663584051721,1671630288.856,528,102355,58709
228519,15059.669017084274,1671630288.856,528,102355,58709
228520,15059.674450116827,1671630288.856,529,102352,58691
228520,15059.67988314938,1671630288.856,529,102352,58691
228521,15059.685316181933,1671630288.856,529,102354,58682
228521,15059.690749214486,1671630288.856,529,102354,58682
228522,15059.696182247038,1671630288.948,528,102329,58678
228522,15059.701615279591,1671630288.948,528,102329,58678
228523,15059.707048312144,1671630288.948,531,102252,58668
228523,15059.712481344697,1671630288.948,531,102252,58668
228524,15059.762136566347,1671630288.948,532,102315,58669
228524,15059.769448371477,1671630288.948,532,102315,58669
228525,15059.776760176606,1671630288.948,529,102315,58671
228525,15059.784071981736,1671630288.948,529,102315,58671
228526,15059.791383786865,1671630288.948,531,102216,58672
228526,15059.798695591995,1671630288.948,531,102216,58672
228527,15059.806007397125,1671630288.948,530,102364,58667
228527,15059.813319202254,1671630288.948,530,102364,58667
228528,15059.820631007384,1671630289.041,530,102349,58672
228528,15059.827942812513,1671630289.041,530,102349,58672
228529,15059.835254617643,1671630289.041,530,102334,58679
228529,15059.842566422773,1671630289.041,530,102334,58679
228530,15059.849878227902,1671630289.041,529,102290,58670
228530,15059.857190033032,1671630289.041,529,102290,58670
228531,15059.864501838161,1671630289.041,530,102311,58662
228531,15059.87181364329,1671630289.041,530,102311,58662
228532,15059.87912544842,1671630289.041,530,102225,58665
228532,15059.88643725355,1671630289.041,530,102225,58665
228533,15059.89374905868,1671630289.041,530,102406,58703
228533,15059.90106086381,1671630289.041,530,102406,58703
228534,15059.916637875574,1671630289.134,531,102358,58688
228534,15059.923926420925,1671630289.134,531,102358,58688
228535,15059.931214966275,1671630289.134,529,102338,58692
228535,15059.938503511625,1671630289.134,529,102338,58692
228536,15059.945792056975,1671630289.134,528,102264,58671
228536,15059.953080602325,1671630289.134,528,102264,58671
228537,15059.960369147675,1671630289.134,528,102284,58684
228537,15059.967657693025,1671630289.134,528,102284,58684
228538,15059.974946238375,1671630289.134,530,102347,58674
228538,15059.982234783725,1671630289.134,530,102347,58674
228539,15059.989523329075,1671630289.134,530,102303,58681
228539,15059.996811874425,1671630289.134,530,102303,58681
228540,15060.004100419776,1671630289.225,530,102282,58704
228540,15060.011388965126,1671630289.225,530,102282,58704
228541,15060.018677510476,1671630289.225,530,102298,58671
228541,15060.025966055826,1671630289.225,530,102298,58671
228542,15060.033254601176,1671630289.225,530,102308,58690
228542,15060.040543146526,1671630289.225,530,102308,58690
228543,15060.047831691876,1671630289.225,530,102336,58709
228543,15060.055120237226,1671630289.225,530,102336,58709
228544,15060.069436685571,1671630289.225,528,102414,58713
228544,15060.076548225921,1671630289.225,528,102414,58713
228545,15060.083659766271,1671630289.225,529,102272,58698
228545,15060.09077130662,1671630289.225,529,102272,58698
228546,15060.09788284697,1671630289.328,529,102320,58713
228546,15060.10499438732,1671630289.328,529,102320,58713
228547,15060.11210592767,1671630289.328,529,102319,58709
228547,15060.11921746802,1671630289.328,529,102319,58709
228548,15060.12632900837,1671630289.328,532,102358,58694
228548,15060.13344054872,1671630289.328,532,102358,58694
228549,15060.14055208907,1671630289.328,531,102406,58730
228549,15060.14766362942,1671630289.328,531,102406,58730
228550,15060.154775169769,1671630289.328,530,102416,58737
228550,15060.161886710119,1671630289.328,530,102416,58737
228551,15060.168998250469,1671630289.328,528,102477,58746
228551,15060.176109790818,1671630289.328,528,102477,58746
228552,15060.183221331168,1671630289.43,531,102404,58738
228552,15060.190332871518,1671630289.43,531,102404,58738
228553,15060.197444411868,1671630289.43,528,102455,58742
228553,15060.204555952218,1671630289.43,528,102455,58742
228554,15060.23831893306,1671630289.43,529,102466,58749
228554,15060.246285818082,1671630289.43,529,102466,58749
228555,15060.254252703106,1671630289.43,528,102439,58750
228555,15060.262219588129,1671630289.43,528,102439,58750
228556,15060.270186473152,1671630289.43,532,102359,58723
228556,15060.278153358175,1671630289.43,532,102359,58723
228557,15060.286120243198,1671630289.43,532,102337,58727
228557,15060.29408712822,1671630289.43,532,102337,58727
228558,15060.302054013244,1671630289.51,531,102338,58732
228558,15060.310020898267,1671630289.51,531,102338,58732
228559,15060.31798778329,1671630289.51,530,102307,58708
228559,15060.325954668313,1671630289.51,530,102307,58708
228560,15060.333921553336,1671630289.51,529,102354,58741
228560,15060.34188843836,1671630289.51,529,102354,58741
228561,15060.349855323382,1671630289.51,528,102207,58712
228561,15060.357822208405,1671630289.51,528,102207,58712
228562,15060.365789093428,1671630289.51,530,102283,58722
228562,15060.373755978451,1671630289.51,530,102283,58722
228563,15060.381722863474,1671630289.51,531,102239,58734
228563,15060.389689748497,1671630289.51,531,102239,58734
228564,15060.383835346374,1671630289.605,531,102291,58704
228564,15060.39011765101,1671630289.605,531,102291,58704
228565,15060.396399955645,1671630289.605,531,102129,58704
228565,15060.402682260281,1671630289.605,531,102129,58704
228566,15060.408964564916,1671630289.605,530,102240,58699
228566,15060.415246869552,1671630289.605,530,102240,58699
228567,15060.421529174188,1671630289.605,528,102167,58680
228567,15060.427811478823,1671630289.605,528,102167,58680
228568,15060.434093783459,1671630289.605,530,102104,58667
228568,15060.440376088094,1671630289.605,530,102104,58667
228569,15060.44665839273,1671630289.605,530,102123,58691
228569,15060.452940697365,1671630289.605,530,102123,58691
228570,15060.459223002,1671630289.696,530,102162,58695
228570,15060.465505306636,1671630289.696,530,102162,58695
228571,15060.471787611272,1671630289.696,529,102156,58706
228571,15060.478069915907,1671630289.696,529,102156,58706
228572,15060.484352220543,1671630289.696,531,102155,58693
228572,15060.490634525178,1671630289.696,531,102155,58693
228573,15060.496916829814,1671630289.696,531,102106,58678
228573,15060.50319913445,1671630289.696,531,102106,58678
228574,15060.540577133315,1671630289.696,531,102142,58666
228574,15060.547707518203,1671630289.696,531,102142,58666
228575,15060.55483790309,1671630289.696,530,102109,58690
228575,15060.561968287977,1671630289.696,530,102109,58690
228576,15060.569098672864,1671630289.798,530,102091,58686
228576,15060.576229057751,1671630289.798,530,102091,58686
228577,15060.583359442639,1671630289.798,529,102079,58654
228577,15060.590489827526,1671630289.798,529,102079,58654
228578,15060.597620212413,1671630289.798,530,102063,58662
228578,15060.6047505973,1671630289.798,530,102063,58662
228579,15060.611880982187,1671630289.798,530,102060,58680
228579,15060.619011367075,1671630289.798,530,102060,58680
228580,15060.626141751962,1671630289.798,530,102099,58704
228580,15060.633272136849,1671630289.798,530,102099,58704
228581,15060.640402521736,1671630289.798,529,102055,58690
228581,15060.647532906623,1671630289.798,529,102055,58690
228582,15060.65466329151,1671630289.881,530,102059,58683
228582,15060.661793676398,1671630289.881,530,102059,58683
228583,15060.668924061285,1671630289.881,529,102012,58686
228583,15060.676054446172,1671630289.881,529,102012,58686
228584,15060.700957444064,1671630289.881,529,101988,58666
228584,15060.707857186082,1671630289.881,529,101988,58666
228585,15060.7147569281,1671630289.881,528,102042,58685
228585,15060.721656670119,1671630289.881,528,102042,58685
228586,15060.728556412138,1671630289.881,528,102000,58688
228586,15060.735456154156,1671630289.881,528,102000,58688
228587,15060.742355896175,1671630289.881,529,101997,58685
228587,15060.749255638193,1671630289.881,529,101997,58685
228588,15060.756155380212,1671630289.99,530,102004,58686
228588,15060.76305512223,1671630289.99,530,102004,58686
228589,15060.769954864249,1671630289.99,531,102030,58688
228589,15060.776854606267,1671630289.99,531,102030,58688
228590,15060.783754348286,1671630289.99,530,102045,58691
228590,15060.790654090304,1671630289.99,530,102045,58691
228591,15060.797553832323,1671630289.99,529,102086,58693
228591,15060.804453574341,1671630289.99,529,102086,58693
228592,15060.81135331636,1671630289.99,528,102022,58680
228592,15060.818253058378,1671630289.99,528,102022,58680
228593,15060.825152800397,1671630289.99,529,102128,58711
228593,15060.832052542415,1671630289.99,529,102128,58711
228594,15060.86712725835,1671630290.081,529,102043,58701
228594,15060.87565782569,1671630290.081,529,102043,58701
228595,15060.88418839303,1671630290.081,528,102018,58719
228595,15060.892718960371,1671630290.081,528,102018,58719
228596,15060.901249527711,1671630290.081,530,101961,58692
228596,15060.909780095051,1671630290.081,530,101961,58692
228597,15060.918310662391,1671630290.081,529,102054,58725
228597,15060.926841229732,1671630290.081,529,102054,58725
228598,15060.935371797072,1671630290.081,530,102051,58705
228598,15060.943902364412,1671630290.081,530,102051,58705
228599,15060.952432931752,1671630290.081,528,102088,58708
228599,15060.960963499092,1671630290.081,528,102088,58708
228600,15060.969494066432,1671630290.172,527,101985,58700
228600,15060.978024633772,1671630290.172,527,101985,58700
228601,15060.986555201112,1671630290.172,529,102038,58714
228601,15060.995085768453,1671630290.172,529,102038,58714
228602,15061.003616335793,1671630290.172,531,101976,58708
228602,15061.012146903133,1671630290.172,531,101976,58708
228603,15061.020677470473,1671630290.172,530,102135,58757
228603,15061.029208037813,1671630290.172,530,102135,58757
228604,15061.016928722187,1671630290.172,530,102090,58743
228604,15061.024063111798,1671630290.172,530,102090,58743
228605,15061.031197501408,1671630290.172,531,102067,58730
228605,15061.038331891019,1671630290.172,531,102067,58730
228606,15061.04546628063,1671630290.266,530,102128,58758
228606,15061.05260067024,1671630290.266,530,102128,58758
228607,15061.059735059851,1671630290.266,528,102152,58750
228607,15061.066869449462,1671630290.266,528,102152,58750
228608,15061.074003839072,1671630290.266,529,102014,58751
228608,15061.081138228683,1671630290.266,529,102014,58751
228609,15061.088272618294,1671630290.266,530,102087,58762
228609,15061.095407007904,1671630290.266,530,102087,58762
228610,15061.102541397515,1671630290.266,530,102095,58773
228610,15061.109675787126,1671630290.266,530,102095,58773
228611,15061.116810176736,1671630290.266,530,102178,58783
228611,15061.123944566347,1671630290.266,530,102178,58783
228612,15061.131078955957,1671630290.356,532,102187,58790
228612,15061.138213345568,1671630290.356,532,102187,58790
228613,15061.145347735179,1671630290.356,531,102113,58781
228613,15061.15248212479,1671630290.356,531,102113,58781
228614,15061.170890221441,1671630290.356,531,102157,58784
228614,15061.178031216396,1671630290.356,531,102157,58784
228615,15061.18517221135,1671630290.356,529,102190,58781
228615,15061.192313206304,1671630290.356,529,102190,58781
228616,15061.199454201258,1671630290.356,526,102186,58813
228616,15061.206595196212,1671630290.356,526,102186,58813
228617,15061.213736191166,1671630290.356,528,102161,58801
228617,15061.22087718612,1671630290.356,528,102161,58801
228618,15061.228018181075,1671630290.453,528,102216,58834
228618,15061.235159176029,1671630290.453,528,102216,58834
228619,15061.242300170983,1671630290.453,529,102262,58832
228619,15061.249441165937,1671630290.453,529,102262,58832
228620,15061.256582160891,1671630290.453,530,102234,58846
228620,15061.263723155846,1671630290.453,530,102234,58846
228621,15061.2708641508,1671630290.453,529,102241,58836
228621,15061.278005145754,1671630290.453,529,102241,58836
228622,15061.285146140708,1671630290.453,529,102232,58827
228622,15061.292287135662,1671630290.453,529,102232,58827
228623,15061.299428130616,1671630290.453,528,102203,58834
228623,15061.30656912557,1671630290.453,528,102203,58834
228624,15061.328805363979,1671630290.546,528,102198,58816
228624,15061.33637645877,1671630290.546,528,102198,58816
228625,15061.343947553562,1671630290.546,530,102192,58833
228625,15061.351518648353,1671630290.546,530,102192,58833
228626,15061.359089743144,1671630290.546,529,102176,58810
228626,15061.366660837935,1671630290.546,529,102176,58810
228627,15061.374231932727,1671630290.546,529,102119,58807
228627,15061.381803027518,1671630290.546,529,102119,58807
228628,15061.38937412231,1671630290.546,531,102055,58796
228628,15061.3969452171,1671630290.546,531,102055,58796
228629,15061.404516311892,1671630290.546,529,102134,58817
228629,15061.412087406683,1671630290.546,529,102134,58817
228630,15061.419658501474,1671630290.633,530,102079,58790
228630,15061.427229596266,1671630290.633,530,102079,58790
228631,15061.434800691057,1671630290.633,529,102058,58800
228631,15061.442371785848,1671630290.633,529,102058,58800
228632,15061.44994288064,1671630290.633,529,101972,58797
228632,15061.45751397543,1671630290.633,529,101972,58797
228633,15061.465085070222,1671630290.633,529,102017,58792
228633,15061.472656165013,1671630290.633,529,102017,58792
228634,15061.478517088875,1671630290.633,530,101901,58769
228634,15061.485297196668,1671630290.633,530,101901,58769
228635,15061.492077304461,1671630290.633,530,101889,58777
228635,15061.498857412254,1671630290.633,530,101889,58777
228636,15061.505637520047,1671630290.73,531,101980,58774
228636,15061.51241762784,1671630290.73,531,101980,58774
228637,15061.519197735633,1671630290.73,529,101933,58781
228637,15061.525977843427,1671630290.73,529,101933,58781
228638,15061.53275795122,1671630290.73,530,101909,58792
228638,15061.539538059013,1671630290.73,530,101909,58792
228639,15061.546318166806,1671630290.73,530,101953,58789
228639,15061.553098274599,1671630290.73,530,101953,58789
228640,15061.559878382392,1671630290.73,528,101968,58789
228640,15061.566658490185,1671630290.73,528,101968,58789
228641,15061.573438597978,1671630290.73,529,101868,58772
228641,15061.58021870577,1671630290.73,529,101868,58772
228642,15061.586998813564,1671630290.828,528,101943,58786
228642,15061.593778921357,1671630290.828,528,101943,58786
228643,15061.60055902915,1671630290.828,530,101978,58788
228643,15061.607339136943,1671630290.828,530,101978,58788
228644,15061.6382905734,1671630290.828,532,101901,58781
228644,15061.645937113739,1671630290.828,532,101901,58781
228645,15061.653583654077,1671630290.828,529,101829,58756
228645,15061.661230194415,1671630290.828,529,101829,58756
228646,15061.668876734753,1671630290.828,531,101828,58772
228646,15061.676523275091,1671630290.828,531,101828,58772
228647,15061.68416981543,1671630290.828,530,101795,58758
228647,15061.691816355768,1671630290.828,530,101795,58758
228648,15061.699462896106,1671630290.915,530,101926,58773
228648,15061.707109436444,1671630290.915,530,101926,58773
228649,15061.714755976782,1671630290.915,529,101826,58761
228649,15061.72240251712,1671630290.915,529,101826,58761
228650,15061.730049057458,1671630290.915,529,101829,58763
228650,15061.737695597796,1671630290.915,529,101829,58763
228651,15061.745342138134,1671630290.915,531,101822,58760
228651,15061.752988678472,1671630290.915,531,101822,58760
228652,15061.76063521881,1671630290.915,531,101802,58742
228652,15061.768281759149,1671630290.915,531,101802,58742
228653,15061.775928299487,1671630290.915,531,101844,58758
228653,15061.783574839825,1671630290.915,531,101844,58758
228654,15061.789944783855,1671630291.008,530,101826,58779
228654,15061.796768700158,1671630291.008,530,101826,58779
228655,15061.803592616461,1671630291.008,528,101824,58764
228655,15061.810416532764,1671630291.008,528,101824,58764
228656,15061.817240449067,1671630291.008,529,101839,58768
228656,15061.82406436537,1671630291.008,529,101839,58768
228657,15061.830888281673,1671630291.008,529,101873,58769
228657,15061.837712197976,1671630291.008,529,101873,58769
228658,15061.844536114279,1671630291.008,528,101839,58772
228658,15061.851360030581,1671630291.008,528,101839,58772
228659,15061.858183946884,1671630291.008,530,101866,58793
228659,15061.865007863187,1671630291.008,530,101866,58793
228660,15061.87183177949,1671630291.104,530,101926,58783
228660,15061.878655695793,1671630291.104,530,101926,58783
228661,15061.885479612096,1671630291.104,530,101896,58783
228661,15061.892303528399,1671630291.104,530,101896,58783
228662,15061.899127444702,1671630291.104,530,101823,58777
228662,15061.905951361005,1671630291.104,530,101823,58777
228663,15061.912775277307,1671630291.104,528,101877,58783
228663,15061.91959919361,1671630291.104,528,101877,58783
228664,15061.94768034514,1671630291.104,529,101834,58799
228664,15061.955190168239,1671630291.104,529,101834,58799
228665,15061.962699991338,1671630291.104,529,101862,58784
228665,15061.970209814437,1671630291.104,529,101862,58784
228666,15061.977719637536,1671630291.208,529,101924,58791
228666,15061.985229460635,1671630291.208,529,101924,58791
228667,15061.992739283734,1671630291.208,530,101905,58774
228667,15062.000249106834,1671630291.208,530,101905,58774
228668,15062.007758929933,1671630291.208,529,101868,58798
228668,15062.015268753032,1671630291.208,529,101868,58798
228669,15062.02277857613,1671630291.208,530,101894,58800
228669,15062.03028839923,1671630291.208,530,101894,58800
228670,15062.037798222329,1671630291.208,529,101997,58832
228670,15062.045308045428,1671630291.208,529,101997,58832
228671,15062.052817868527,1671630291.208,529,101836,58804
228671,15062.060327691626,1671630291.208,529,101836,58804
228672,15062.067837514725,1671630291.29,529,101940,58823
228672,15062.075347337824,1671630291.29,529,101940,58823
228673,15062.082857160924,1671630291.29,530,101958,58804
228673,15062.090366984023,1671630291.29,530,101958,58804
228674,15062.110340658639,1671630291.29,530,101867,58812
228674,15062.117255149453,1671630291.29,530,101867,58812
228675,15062.124169640267,1671630291.29,531,102013,58829
228675,15062.13108413108,1671630291.29,531,102013,58829
228676,15062.137998621894,1671630291.29,529,101880,58807
228676,15062.144913112708,1671630291.29,529,101880,58807
228677,15062.151827603522,1671630291.29,530,101955,58843
228677,15062.158742094336,1671630291.29,530,101955,58843
228678,15062.16565658515,1671630291.378,529,101951,58840
228678,15062.172571075964,1671630291.378,529,101951,58840
228679,15062.179485566778,1671630291.378,528,102024,58861
228679,15062.186400057592,1671630291.378,528,102024,58861
228680,15062.193314548405,1671630291.378,527,102034,58853
228680,15062.20022903922,1671630291.378,527,102034,58853
228681,15062.207143530033,1671630291.378,529,101915,58836
228681,15062.214058020847,1671630291.378,529,101915,58836
228682,15062.22097251166,1671630291.378,531,102047,58860
228682,15062.227887002475,1671630291.378,531,102047,58860
228683,15062.234801493289,1671630291.378,530,102074,58877
228683,15062.241715984102,1671630291.378,530,102074,58877
228684,15062.25292117465,1671630291.478,529,102015,58846
228684,15062.259803455101,1671630291.478,529,102015,58846
228685,15062.266685735553,1671630291.478,529,102035,58885
228685,15062.273568016004,1671630291.478,529,102035,58885
228686,15062.280450296455,1671630291.478,529,101976,58882
228686,15062.287332576907,1671630291.478,529,101976,58882
228687,15062.294214857358,1671630291.478,528,102073,58893
228687,15062.30109713781,1671630291.478,528,102073,58893
228688,15062.307979418261,1671630291.478,528,102091,58883
228688,15062.314861698713,1671630291.478,528,102091,58883
228689,15062.321743979164,1671630291.478,530,102035,58866
228689,15062.328626259616,1671630291.478,530,102035,58866
228690,15062.335508540067,1671630291.574,528,102070,58907
228690,15062.342390820519,1671630291.574,528,102070,58907
228691,15062.34927310097,1671630291.574,532,102055,58896
228691,15062.356155381422,1671630291.574,532,102055,58896
228692,15062.363037661873,1671630291.574,531,102047,58912
228692,15062.369919942324,1671630291.574,531,102047,58912
228693,15062.376802222776,1671630291.574,529,102114,58927
228693,15062.383684503227,1671630291.574,529,102114,58927
228694,15062.417714182802,1671630291.574,529,102148,58940
228694,15062.425201569295,1671630291.574,529,102148,58940
228695,15062.432688955787,1671630291.574,529,102121,58943
228695,15062.44017634228,1671630291.574,529,102121,58943
228696,15062.447663728772,1671630291.68,528,102174,58930
228696,15062.455151115264,1671630291.68,528,102174,58930
228697,15062.462638501756,1671630291.68,529,102168,58951
228697,15062.470125888249,1671630291.68,529,102168,58951
228698,15062.477613274741,1671630291.68,528,102167,58930
228698,15062.485100661233,1671630291.68,528,102167,58930
228699,15062.492588047726,1671630291.68,530,102099,58932
228699,15062.500075434218,1671630291.68,530,102099,58932
228700,15062.50756282071,1671630291.68,530,102038,58893
228700,15062.515050207203,1671630291.68,530,102038,58893
228701,15062.522537593695,1671630291.68,531,102072,58912
228701,15062.530024980188,1671630291.68,531,102072,58912
228702,15062.53751236668,1671630291.758,527,102055,58908
228702,15062.544999753172,1671630291.758,527,102055,58908
228703,15062.552487139665,1671630291.758,530,102029,58903
228703,15062.559974526157,1671630291.758,530,102029,58903
228704,15062.58127922212,1671630291.758,529,102061,58925
228704,15062.588036844414,1671630291.758,529,102061,58925
228705,15062.594794466708,1671630291.758,529,102014,58923
228705,15062.601552089001,1671630291.758,529,102014,58923
228706,15062.608309711295,1671630291.758,529,101948,58904
228706,15062.615067333589,1671630291.758,529,101948,58904
228707,15062.621824955882,1671630291.758,530,102023,58913
228707,15062.628582578176,1671630291.758,530,102023,58913
228708,15062.63534020047,1671630291.853,530,101963,58886
228708,15062.642097822763,1671630291.853,530,101963,58886
228709,15062.648855445057,1671630291.853,530,101907,58889
228709,15062.65561306735,1671630291.853,530,101907,58889
228710,15062.662370689644,1671630291.853,528,101874,58892
228710,15062.669128311938,1671630291.853,528,101874,58892
228711,15062.675885934232,1671630291.853,528,101914,58891
228711,15062.682643556525,1671630291.853,528,101914,58891
228712,15062.689401178819,1671630291.853,529,101891,58896
228712,15062.696158801113,1671630291.853,529,101891,58896
228713,15062.702916423406,1671630291.853,530,101837,58886
228713,15062.7096740457,1671630291.853,530,101837,58886
228714,15062.728462030762,1671630291.955,531,101897,58867
228714,15062.735841839332,1671630291.955,531,101897,58867
228715,15062.743221647903,1671630291.955,531,101908,58886
228715,15062.750601456473,1671630291.955,531,101908,58886
228716,15062.757981265044,1671630291.955,530,101948,58904
228716,15062.765361073614,1671630291.955,530,101948,58904
228717,15062.772740882185,1671630291.955,529,101870,58869
228717,15062.780120690755,1671630291.955,529,101870,58869
228718,15062.787500499326,1671630291.955,530,101909,58885
228718,15062.794880307896,1671630291.955,530,101909,58885
228719,15062.802260116467,1671630291.955,529,101808,58867
228719,15062.809639925037,1671630291.955,529,101808,58867
228720,15062.817019733608,1671630292.041,530,101799,58872
228720,15062.824399542178,1671630292.041,530,101799,58872
228721,15062.831779350749,1671630292.041,528,101884,58890
228721,15062.839159159319,1671630292.041,528,101884,58890
228722,15062.84653896789,1671630292.041,531,101758,58859
228722,15062.85391877646,1671630292.041,531,101758,58859
228723,15062.86129858503,1671630292.041,532,101866,58851
228723,15062.868678393601,1671630292.041,532,101866,58851
228724,15062.887073789345,1671630292.041,530,101767,58860
228724,15062.893866384962,1671630292.041,530,101767,58860
228725,15062.90065898058,1671630292.041,529,101935,58883
228725,15062.907451576197,1671630292.041,529,101935,58883
228726,15062.914244171814,1671630292.136,528,101855,58854
228726,15062.921036767431,1671630292.136,528,101855,58854
228727,15062.927829363049,1671630292.136,529,101866,58860
228727,15062.934621958666,1671630292.136,529,101866,58860
228728,15062.941414554283,1671630292.136,528,101845,58854
228728,15062.9482071499,1671630292.136,528,101845,58854
228729,15062.954999745518,1671630292.136,528,101785,58858
228729,15062.961792341135,1671630292.136,528,101785,58858
228730,15062.968584936752,1671630292.136,529,101799,58873
228730,15062.97537753237,1671630292.136,529,101799,58873
228731,15062.982170127987,1671630292.136,531,101791,58856
228731,15062.988962723604,1671630292.136,531,101791,58856
228732,15062.995755319222,1671630292.245,530,101883,58876
228732,15063.002547914839,1671630292.245,530,101883,58876
228733,15063.009340510456,1671630292.245,530,101847,58881
228733,15063.016133106074,1671630292.245,530,101847,58881
228734,15063.048326131417,1671630292.245,530,101906,58885
228734,15063.056527121484,1671630292.245,530,101906,58885
228735,15063.06472811155,1671630292.245,528,101910,58884
228735,15063.072929101618,1671630292.245,528,101910,58884
228736,15063.081130091685,1671630292.245,530,101867,58865
228736,15063.089331081752,1671630292.245,530,101867,58865
228737,15063.097532071819,1671630292.245,529,101882,58872
228737,15063.105733061886,1671630292.245,529,101882,58872
228738,15063.113934051953,1671630292.326,530,101919,58887
228738,15063.12213504202,1671630292.326,530,101919,58887
228739,15063.130336032087,1671630292.326,530,101912,58893
228739,15063.138537022154,1671630292.326,530,101912,58893
228740,15063.146738012221,1671630292.326,528,101927,58869
228740,15063.154939002288,1671630292.326,528,101927,58869
228741,15063.163139992355,1671630292.326,530,101928,58886
228741,15063.171340982422,1671630292.326,530,101928,58886
228742,15063.17954197249,1671630292.326,530,101908,58883
228742,15063.187742962557,1671630292.326,530,101908,58883
228743,15063.195943952624,1671630292.326,528,101883,58908
228743,15063.20414494269,1671630292.326,528,101883,58908
228744,15063.200250989246,1671630292.422,529,101935,58881
228744,15063.206615188617,1671630292.422,529,101935,58881
228745,15063.212979387989,1671630292.422,529,101914,58877
228745,15063.21934358736,1671630292.422,529,101914,58877
228746,15063.22570778673,1671630292.422,531,101907,58874
228746,15063.232071986102,1671630292.422,531,101907,58874
228747,15063.238436185473,1671630292.422,531,101928,58905
228747,15063.244800384844,1671630292.422,531,101928,58905
228748,15063.251164584215,1671630292.422,531,101860,58888
228748,15063.257528783586,1671630292.422,531,101860,58888
228749,15063.263892982957,1671630292.422,530,101965,58891
228749,15063.270257182328,1671630292.422,530,101965,58891
228750,15063.2766213817,1671630292.512,528,101982,58916
228750,15063.28298558107,1671630292.512,528,101982,58916
228751,15063.289349780442,1671630292.512,529,101943,58904
228751,15063.295713979813,1671630292.512,529,101943,58904
228752,15063.302078179184,1671630292.512,528,102008,58930
228752,15063.308442378555,1671630292.512,528,102008,58930
228753,15063.314806577926,1671630292.512,531,101923,58903
228753,15063.321170777297,1671630292.512,531,101923,58903
228754,15063.356961731579,1671630292.512,528,102008,58907
228754,15063.363995051106,1671630292.512,528,102008,58907
228755,15063.371028370633,1671630292.512,531,102039,58930
228755,15063.37806169016,1671630292.512,531,102039,58930
228756,15063.385095009688,1671630292.604,529,101982,58915
228756,15063.392128329215,1671630292.604,529,101982,58915
228757,15063.399161648742,1671630292.604,531,102053,58922
228757,15063.40619496827,1671630292.604,531,102053,58922
228758,15063.413228287796,1671630292.604,530,102020,58922
228758,15063.420261607323,1671630292.604,530,102020,58922
228759,15063.42729492685,1671630292.604,529,102095,58948
228759,15063.434328246378,1671630292.604,529,102095,58948
228760,15063.441361565905,1671630292.604,530,102065,58951
228760,15063.448394885432,1671630292.604,530,102065,58951
228761,15063.45542820496,1671630292.604,531,102083,58962
228761,15063.462461524487,1671630292.604,531,102083,58962
228762,15063.469494844014,1671630292.709,531,102127,58943
228762,15063.476528163541,1671630292.709,531,102127,58943
228763,15063.483561483068,1671630292.709,530,102090,58957
228763,15063.490594802595,1671630292.709,530,102090,58957
228764,15063.515212992601,1671630292.709,529,102113,58962
228764,15063.523126483338,1671630292.709,529,102113,58962
228765,15063.531039974076,1671630292.709,530,102133,58982
228765,15063.538953464813,1671630292.709,530,102133,58982
228766,15063.54686695555,1671630292.709,531,102088,58983
228766,15063.554780446288,1671630292.709,531,102088,58983
228767,15063.562693937025,1671630292.709,529,102046,58965
228767,15063.570607427762,1671630292.709,529,102046,58965
228768,15063.5785209185,1671630292.794,529,102103,58997
228768,15063.586434409237,1671630292.794,529,102103,58997
228769,15063.594347899974,1671630292.794,530,102159,58971
228769,15063.602261390712,1671630292.794,530,102159,58971
228770,15063.610174881449,1671630292.794,531,102170,58967
228770,15063.618088372186,1671630292.794,531,102170,58967
228771,15063.626001862924,1671630292.794,531,102076,58947
228771,15063.633915353661,1671630292.794,531,102076,58947
228772,15063.641828844398,1671630292.794,529,101978,58937
228772,15063.649742335136,1671630292.794,529,101978,58937
228773,15063.657655825873,1671630292.794,530,102026,58928
228773,15063.66556931661,1671630292.794,530,102026,58928
228774,15063.668354539106,1671630292.904,529,102088,58942
228774,15063.674980372753,1671630292.904,529,102088,58942
228775,15063.681606206399,1671630292.904,530,102036,58961
228775,15063.688232040045,1671630292.904,530,102036,58961
228776,15063.694857873692,1671630292.904,530,101999,58935
228776,15063.701483707338,1671630292.904,530,101999,58935
228777,15063.708109540985,1671630292.904,532,102017,58943
228777,15063.714735374631,1671630292.904,532,102017,58943
228778,15063.721361208278,1671630292.904,531,101909,58931
228778,15063.727987041924,1671630292.904,531,101909,58931
228779,15063.73461287557,1671630292.904,529,102015,58925
228779,15063.741238709217,1671630292.904,529,102015,58925
228780,15063.747864542864,1671630292.978,531,101993,58953
228780,15063.75449037651,1671630292.978,531,101993,58953
228781,15063.761116210157,1671630292.978,531,101939,58955
228781,15063.767742043803,1671630292.978,531,101939,58955
228782,15063.77436787745,1671630292.978,526,101881,58904
228782,15063.780993711096,1671630292.978,526,101881,58904
228783,15063.787619544742,1671630292.978,530,102051,58953
228783,15063.794245378389,1671630292.978,530,102051,58953
228784,15063.827275935751,1671630292.978,529,101995,58921
228784,15063.833269691957,1671630292.978,529,101995,58921
228785,15063.839263448162,1671630292.978,529,101979,58929
228785,15063.845257204368,1671630292.978,529,101979,58929
228786,15063.851250960573,1671630293.077,531,101970,58947
228786,15063.857244716779,1671630293.077,531,101970,58947
228787,15063.863238472984,1671630293.077,530,101993,58932
228787,15063.86923222919,1671630293.077,530,101993,58932
228788,15063.875225985395,1671630293.077,528,101935,58914
228788,15063.881219741601,1671630293.077,528,101935,58914
228789,15063.887213497806,1671630293.077,529,101959,58928
228789,15063.893207254012,1671630293.077,529,101959,58928
228790,15063.899201010217,1671630293.077,530,101912,58924
228790,15063.905194766423,1671630293.077,530,101912,58924
228791,15063.911188522628,1671630293.077,530,101913,58908
228791,15063.917182278834,1671630293.077,530,101913,58908
228792,15063.92317603504,1671630293.169,530,101943,58917
228792,15063.929169791245,1671630293.169,530,101943,58917
228793,15063.93516354745,1671630293.169,530,101913,58918
228793,15063.941157303656,1671630293.169,530,101913,58918
228794,15063.983489554521,1671630293.169,532,101861,58904
228794,15063.990820874342,1671630293.169,532,101861,58904
228795,15063.998152194163,1671630293.169,531,101920,58913
228795,15064.005483513984,1671630293.169,531,101920,58913
228796,15064.012814833804,1671630293.169,530,101825,58921
228796,15064.020146153625,1671630293.169,530,101825,58921
228797,15064.027477473446,1671630293.169,529,101990,58920
228797,15064.034808793267,1671630293.169,529,101990,58920
228798,15064.042140113088,1671630293.267,529,101957,58899
228798,15064.049471432909,1671630293.267,529,101957,58899
228799,15064.05680275273,1671630293.267,529,101869,58910
228799,15064.06413407255,1671630293.267,529,101869,58910
228800,15064.071465392371,1671630293.267,529,101879,58915
228800,15064.078796712192,1671630293.267,529,101879,58915
228801,15064.086128032013,1671630293.267,531,101949,58897
228801,15064.093459351834,1671630293.267,531,101949,58897
228802,15064.100790671655,1671630293.267,531,101908,58884
228802,15064.108121991476,1671630293.267,531,101908,58884
228803,15064.115453311297,1671630293.267,530,102015,58932
228803,15064.122784631118,1671630293.267,530,102015,58932
228804,15064.143184194376,1671630293.355,530,102013,58916
228804,15064.150853178635,1671630293.355,530,102013,58916
228805,15064.158522162894,1671630293.355,531,102004,58916
228805,15064.166191147153,1671630293.355,531,102004,58916
228806,15064.173860131412,1671630293.355,531,101915,58901
228806,15064.18152911567,1671630293.355,531,101915,58901
228807,15064.18919809993,1671630293.355,530,101996,58915
228807,15064.196867084189,1671630293.355,530,101996,58915
228808,15064.204536068448,1671630293.355,530,101990,58912
228808,15064.212205052707,1671630293.355,530,101990,58912
228809,15064.219874036966,1671630293.355,531,101951,58916
228809,15064.227543021225,1671630293.355,531,101951,58916
228810,15064.235212005484,1671630293.446,531,101975,58900
228810,15064.242880989743,1671630293.446,531,101975,58900
228811,15064.250549974002,1671630293.446,530,102037,58924
228811,15064.25821895826,1671630293.446,530,102037,58924
228812,15064.26588794252,1671630293.446,530,101998,58911
228812,15064.273556926779,1671630293.446,530,101998,58911
228813,15064.281225911038,1671630293.446,530,102060,58959
228813,15064.288894895297,1671630293.446,530,102060,58959
228814,15064.290432818287,1671630293.446,528,101999,58927
228814,15064.297516185137,1671630293.446,528,101999,58927
228815,15064.304599551988,1671630293.446,530,101946,58925
228815,15064.311682918838,1671630293.446,530,101946,58925
228816,15064.318766285689,1671630293.554,529,102060,58932
228816,15064.32584965254,1671630293.554,529,102060,58932
228817,15064.33293301939,1671630293.554,530,102131,58943
228817,15064.34001638624,1671630293.554,530,102131,58943
228818,15064.347099753091,1671630293.554,529,102092,58964
228818,15064.354183119942,1671630293.554,529,102092,58964
228819,15064.361266486792,1671630293.554,529,102095,58932
228819,15064.368349853643,1671630293.554,529,102095,58932
228820,15064.375433220494,1671630293.554,529,102058,58946
228820,15064.382516587344,1671630293.554,529,102058,58946
228821,15064.389599954195,1671630293.554,531,102056,58944
228821,15064.396683321045,1671630293.554,531,102056,58944
228822,15064.403766687896,1671630293.631,527,102087,58952
228822,15064.410850054746,1671630293.631,527,102087,58952
228823,15064.417933421597,1671630293.631,529,102162,58946
228823,15064.425016788447,1671630293.631,529,102162,58946
228824,15064.454347755076,1671630293.631,529,102119,58950
228824,15064.461079677725,1671630293.631,529,102119,58950
228825,15064.467811600374,1671630293.631,529,102178,58975
228825,15064.474543523023,1671630293.631,529,102178,58975
228826,15064.481275445673,1671630293.631,530,102189,58971
228826,15064.488007368322,1671630293.631,530,102189,58971
228827,15064.49473929097,1671630293.631,530,102210,58980
228827,15064.50147121362,1671630293.631,530,102210,58980
228828,15064.508203136269,1671630293.73,530,102186,58984
228828,15064.514935058918,1671630293.73,530,102186,58984
228829,15064.521666981567,1671630293.73,529,102216,59012
228829,15064.528398904216,1671630293.73,529,102216,59012
228830,15064.535130826865,1671630293.73,527,102329,59017
228830,15064.541862749515,1671630293.73,527,102329,59017
228831,15064.548594672164,1671630293.73,529,102222,58999
228831,15064.555326594813,1671630293.73,529,102222,58999
228832,15064.562058517462,1671630293.73,529,102260,59015
228832,15064.568790440111,1671630293.73,529,102260,59015
228833,15064.57552236276,1671630293.73,529,102254,58996
228833,15064.58225428541,1671630293.73,529,102254,58996
228834,15064.606026323097,1671630293.836,531,102228,59010
228834,15064.613777424693,1671630293.836,531,102228,59010
228835,15064.621528526288,1671630293.836,529,102246,59032
228835,15064.629279627883,1671630293.836,529,102246,59032
228836,15064.637030729478,1671630293.836,530,102275,59007
228836,15064.644781831073,1671630293.836,530,102275,59007
228837,15064.652532932669,1671630293.836,529,102224,58995
228837,15064.660284034264,1671630293.836,529,102224,58995
228838,15064.66803513586,1671630293.836,528,102239,59018
228838,15064.675786237454,1671630293.836,528,102239,59018
228839,15064.68353733905,1671630293.836,530,102179,59000
228839,15064.691288440645,1671630293.836,530,102179,59000
228840,15064.69903954224,1671630293.921,529,102194,58969
228840,15064.706790643835,1671630293.921,529,102194,58969
228841,15064.71454174543,1671630293.921,530,102215,58979
228841,15064.722292847026,1671630293.921,530,102215,58979
228842,15064.73004394862,1671630293.921,529,102233,58993
228842,15064.737795050216,1671630293.921,529,102233,58993
228843,15064.745546151811,1671630293.921,530,102192,58996
228843,15064.753297253406,1671630293.921,530,102192,58996
228844,15064.76730593811,1671630293.921,529,102158,58983
228844,15064.774010201703,1671630293.921,529,102158,58983
228845,15064.780714465296,1671630293.921,529,102212,58990
228845,15064.787418728889,1671630293.921,529,102212,58990
228846,15064.794122992482,1671630294.01,528,102111,58960
228846,15064.800827256075,1671630294.01,528,102111,58960
228847,15064.807531519667,1671630294.01,528,102184,58981
228847,15064.81423578326,1671630294.01,528,102184,58981
228848,15064.820940046853,1671630294.01,529,102128,58972
228848,15064.827644310446,1671630294.01,529,102128,58972
228849,15064.834348574039,1671630294.01,529,102117,58972
228849,15064.841052837632,1671630294.01,529,102117,58972
228850,15064.847757101224,1671630294.01,533,102081,58972
228850,15064.854461364817,1671630294.01,533,102081,58972
228851,15064.86116562841,1671630294.01,531,102043,58985
228851,15064.867869892003,1671630294.01,531,102043,58985
228852,15064.874574155596,1671630294.098,530,102074,58972
228852,15064.881278419189,1671630294.098,530,102074,58972
228853,15064.887982682782,1671630294.098,528,102112,58952
228853,15064.894686946374,1671630294.098,528,102112,58952
228854,15064.914318872185,1671630294.098,528,102094,58963
228854,15064.921179344554,1671630294.098,528,102094,58963
228855,15064.928039816923,1671630294.098,530,102137,58965
228855,15064.934900289292,1671630294.098,530,102137,58965
228856,15064.941760761661,1671630294.098,529,102085,58955
228856,15064.94862123403,1671630294.098,529,102085,58955
228857,15064.9554817064,1671630294.098,530,102093,58941
228857,15064.96234217877,1671630294.098,530,102093,58941
228858,15064.969202651138,1671630294.201,532,102069,58949
228858,15064.976063123508,1671630294.201,532,102069,58949
228859,15064.982923595877,1671630294.201,530,102000,58929
228859,15064.989784068246,1671630294.201,530,102000,58929
228860,15064.996644540615,1671630294.201,531,102038,58924
228860,15065.003505012985,1671630294.201,531,102038,58924
228861,15065.010365485354,1671630294.201,529,102111,58960
228861,15065.017225957723,1671630294.201,529,102111,58960
228862,15065.024086430092,1671630294.201,529,102063,58940
