id,lsl_ts,unix_ts,ambient,ir,red
160392,13022.369479266667,1671628251.542,530,95613,53292
160392,13022.369479266667,1671628251.542,530,95613,53292
160393,13022.377214433334,1671628251.542,514,102552,53278
160393,13022.377214433334,1671628251.542,514,102552,53278
160394,13022.3849496,1671628251.542,510,102574,53254
160394,13022.3849496,1671628251.542,510,102574,53254
160395,13022.392684766666,1671628251.542,511,102533,53241
160395,13022.392684766666,1671628251.542,511,102533,53241
160396,13022.400419933334,1671628251.542,508,102549,53240
160396,13022.400419933334,1671628251.542,508,102549,53240
160397,13022.4081551,1671628251.542,510,102529,53247
160397,13022.4081551,1671628251.542,510,102529,53247
160398,13022.414997166667,1671628251.583,510,102529,53247
160398,13022.414997166667,1671628251.583,510,102529,53247
160399,13022.421839233333,1671628251.583,507,102641,53233
160399,13022.421839233333,1671628251.583,507,102641,53233
160400,13022.4286813,1671628251.583,510,102574,53225
160400,13022.4286813,1671628251.583,510,102574,53225
160401,13022.435523366667,1671628251.583,508,102628,53264
160401,13022.435523366667,1671628251.583,508,102628,53264
160402,13022.442365433333,1671628251.583,509,102547,53213
160402,13022.442365433333,1671628251.583,509,102547,53213
160403,13022.4492075,1671628251.583,507,102609,53247
160403,13022.4492075,1671628251.583,507,102609,53247
160404,13022.46429755,1671628251.674,509,102613,53249
160404,13022.46429755,1671628251.674,509,102613,53249
160405,13022.4793876,1671628251.674,509,102558,53227
160405,13022.4793876,1671628251.674,509,102558,53227
160406,13022.49447765,1671628251.674,508,102640,53247
160406,13022.49447765,1671628251.674,508,102640,53247
160407,13022.509567699999,1671628251.674,509,102681,53253
160407,13022.509567699999,1671628251.674,509,102681,53253
160408,13022.52465775,1671628251.674,509,102708,53234
160408,13022.52465775,1671628251.674,509,102708,53234
160409,13022.5397478,1671628251.674,507,102679,53230
160409,13022.5397478,1671628251.674,507,102679,53230
160410,13022.556295833332,1671628251.773,507,102727,53242
160410,13022.556295833332,1671628251.773,507,102727,53242
160411,13022.572843866667,1671628251.773,506,102760,53259
160411,13022.572843866667,1671628251.773,506,102760,53259
160412,13022.589391900001,1671628251.773,509,102732,53267
160412,13022.589391900001,1671628251.773,509,102732,53267
160413,13022.605939933334,1671628251.773,508,102869,53271
160413,13022.605939933334,1671628251.773,508,102869,53271
160414,13022.622487966666,1671628251.773,508,102834,53291
160414,13022.622487966666,1671628251.773,508,102834,53291
160415,13022.639036,1671628251.773,507,102829,53289
160415,13022.639036,1671628251.773,507,102829,53289
160416,13022.6535186,1671628251.86,508,102794,53268
160416,13022.6535186,1671628251.86,508,102794,53268
160417,13022.6680012,1671628251.86,507,102854,53288
160417,13022.6680012,1671628251.86,507,102854,53288
160418,13022.6824838,1671628251.86,508,102869,53310
160418,13022.6824838,1671628251.86,508,102869,53310
160419,13022.6969664,1671628251.86,508,102983,53328
160419,13022.6969664,1671628251.86,508,102983,53328
160420,13022.711449,1671628251.86,508,102859,53290
160420,13022.711449,1671628251.86,508,102859,53290
160421,13022.7259316,1671628251.86,510,102920,53324
160421,13022.7259316,1671628251.86,510,102920,53324
160422,13022.742639416667,1671628251.96,508,102903,53312
160422,13022.742639416667,1671628251.96,508,102903,53312
160423,13022.759347233334,1671628251.96,509,103059,53324
160423,13022.759347233334,1671628251.96,509,103059,53324
160424,13022.776055049999,1671628251.96,508,103044,53334
160424,13022.776055049999,1671628251.96,508,103044,53334
160425,13022.792762866666,1671628251.96,508,103060,53331
160425,13022.792762866666,1671628251.96,508,103060,53331
160426,13022.809470683333,1671628251.96,508,102868,53295
160426,13022.809470683333,1671628251.96,508,102868,53295
160427,13022.8261785,1671628251.96,507,102857,53262
160427,13022.8261785,1671628251.96,507,102857,53262
160428,13022.8423422,1671628252.057,509,102705,53226
160428,13022.8423422,1671628252.057,509,102705,53226
160429,13022.8585059,1671628252.057,508,102660,53222
160429,13022.8585059,1671628252.057,508,102660,53222
160430,13022.8746696,1671628252.057,509,102606,53206
160430,13022.8746696,1671628252.057,509,102606,53206
160431,13022.8908333,1671628252.057,510,102562,53183
160431,13022.8908333,1671628252.057,510,102562,53183
160432,13022.906997,1671628252.057,508,102502,53185
160432,13022.906997,1671628252.057,508,102502,53185
160433,13022.9231607,1671628252.057,509,102564,53177
160433,13022.9231607,1671628252.057,509,102564,53177
160434,13022.938526516667,1671628252.149,507,102570,53200
160434,13022.938526516667,1671628252.149,507,102570,53200
160435,13022.953892333333,1671628252.149,508,102549,53192
160435,13022.953892333333,1671628252.149,508,102549,53192
160436,13022.96925815,1671628252.149,508,102553,53182
160436,13022.96925815,1671628252.149,508,102553,53182
160437,13022.984623966668,1671628252.149,508,102512,53167
160437,13022.984623966668,1671628252.149,508,102512,53167
160438,13022.999989783333,1671628252.149,507,102560,53189
160438,13022.999989783333,1671628252.149,507,102560,53189
160439,13023.0153556,1671628252.149,509,102541,53151
160439,13023.0153556,1671628252.149,509,102541,53151
160440,13023.03016875,1671628252.238,508,102428,53149
160440,13023.03016875,1671628252.238,508,102428,53149
160441,13023.0449819,1671628252.238,507,102632,53202
160441,13023.0449819,1671628252.238,507,102632,53202
160442,13023.059795050001,1671628252.238,507,102582,53173
160442,13023.059795050001,1671628252.238,507,102582,53173
160443,13023.0746082,1671628252.238,508,102631,53187
160443,13023.0746082,1671628252.238,508,102631,53187
160444,13023.08942135,1671628252.238,507,102590,53174
160444,13023.08942135,1671628252.238,507,102590,53174
160445,13023.1042345,1671628252.238,508,102613,53182
160445,13023.1042345,1671628252.238,508,102613,53182
160446,13023.120217933334,1671628252.334,508,102583,53174
160446,13023.120217933334,1671628252.334,508,102583,53174
160447,13023.136201366668,1671628252.334,508,102590,53160
160447,13023.136201366668,1671628252.334,508,102590,53160
160448,13023.152184800001,1671628252.334,507,102677,53188
160448,13023.152184800001,1671628252.334,507,102677,53188
160449,13023.168168233333,1671628252.334,509,102563,53160
160449,13023.168168233333,1671628252.334,509,102563,53160
160450,13023.184151666666,1671628252.334,508,102537,53153
160450,13023.184151666666,1671628252.334,508,102537,53153
160451,13023.2001351,1671628252.334,508,102693,53191
160451,13023.2001351,1671628252.334,508,102693,53191
160452,13023.21874595,1671628252.446,509,102633,53180
160452,13023.21874595,1671628252.446,509,102633,53180
160453,13023.2373568,1671628252.446,507,102629,53178
160453,13023.2373568,1671628252.446,507,102629,53178
160454,13023.255967649999,1671628252.446,508,102662,53177
160454,13023.255967649999,1671628252.446,508,102662,53177
160455,13023.274578499999,1671628252.446,507,102723,53203
160455,13023.274578499999,1671628252.446,507,102723,53203
160456,13023.293189349999,1671628252.446,509,102680,53185
160456,13023.293189349999,1671628252.446,509,102680,53185
160457,13023.3118002,1671628252.446,509,102712,53212
160457,13023.3118002,1671628252.446,509,102712,53212
160458,13023.325175033333,1671628252.526,507,102710,53204
160458,13023.325175033333,1671628252.526,507,102710,53204
160459,13023.338549866667,1671628252.526,509,102739,53220
160459,13023.338549866667,1671628252.526,509,102739,53220
160460,13023.3519247,1671628252.526,509,102768,53203
160460,13023.3519247,1671628252.526,509,102768,53203
160461,13023.365299533332,1671628252.526,509,102824,53241
160461,13023.365299533332,1671628252.526,509,102824,53241
160462,13023.378674366666,1671628252.526,508,102817,53205
160462,13023.378674366666,1671628252.526,508,102817,53205
160463,13023.3920492,1671628252.526,507,102933,53226
160463,13023.3920492,1671628252.526,507,102933,53226
160464,13023.406834716667,1671628252.615,511,102835,53215
160464,13023.406834716667,1671628252.615,511,102835,53215
160465,13023.421620233334,1671628252.615,508,102898,53221
160465,13023.421620233334,1671628252.615,508,102898,53221
160466,13023.436405749999,1671628252.615,509,102990,53240
160466,13023.436405749999,1671628252.615,509,102990,53240
160467,13023.451191266666,1671628252.615,510,102849,53239
160467,13023.451191266666,1671628252.615,510,102849,53239
160468,13023.465976783333,1671628252.615,509,102901,53260
160468,13023.465976783333,1671628252.615,509,102901,53260
160469,13023.4807623,1671628252.615,508,102994,53262
160469,13023.4807623,1671628252.615,508,102994,53262
160470,13023.495907299999,1671628252.705,509,102999,53287
160470,13023.495907299999,1671628252.705,509,102999,53287
160471,13023.5110523,1671628252.705,509,103064,53289
160471,13023.5110523,1671628252.705,509,103064,53289
160472,13023.5261973,1671628252.705,507,103037,53292
160472,13023.5261973,1671628252.705,507,103037,53292
160473,13023.541342299999,1671628252.705,509,102953,53258
160473,13023.541342299999,1671628252.705,509,102953,53258
160474,13023.5564873,1671628252.705,508,102989,53270
160474,13023.5564873,1671628252.705,508,102989,53270
160475,13023.5716323,1671628252.705,509,102900,53220
160475,13023.5716323,1671628252.705,509,102900,53220
160476,13023.588640516666,1671628252.808,508,102723,53180
160476,13023.588640516666,1671628252.808,508,102723,53180
160477,13023.605648733334,1671628252.808,507,102675,53165
160477,13023.605648733334,1671628252.808,507,102675,53165
160478,13023.62265695,1671628252.808,510,102609,53146
160478,13023.62265695,1671628252.808,510,102609,53146
160479,13023.639665166666,1671628252.808,509,102586,53139
160479,13023.639665166666,1671628252.808,509,102586,53139
160480,13023.656673383333,1671628252.808,509,102626,53131
160480,13023.656673383333,1671628252.808,509,102626,53131
160481,13023.6736816,1671628252.808,509,102621,53155
160481,13023.6736816,1671628252.808,509,102621,53155
160482,13023.688751466667,1671628252.898,508,102575,53142
160482,13023.688751466667,1671628252.898,508,102575,53142
160483,13023.703821333333,1671628252.898,508,102640,53152
160483,13023.703821333333,1671628252.898,508,102640,53152
160484,13023.718891199998,1671628252.898,507,102671,53158
160484,13023.718891199998,1671628252.898,507,102671,53158
160485,13023.733961066666,1671628252.898,508,102625,53138
160485,13023.733961066666,1671628252.898,508,102625,53138
160486,13023.749030933333,1671628252.898,510,102639,53133
160486,13023.749030933333,1671628252.898,510,102639,53133
160487,13023.7641008,1671628252.898,509,102621,53137
160487,13023.7641008,1671628252.898,509,102621,53137
160488,13023.779173249999,1671628252.988,509,102690,53141
160488,13023.779173249999,1671628252.988,509,102690,53141
160489,13023.794245699999,1671628252.988,508,102661,53144
160489,13023.794245699999,1671628252.988,508,102661,53144
160490,13023.80931815,1671628252.988,509,102740,53146
160490,13023.80931815,1671628252.988,509,102740,53146
160491,13023.8243906,1671628252.988,509,102754,53139
160491,13023.8243906,1671628252.988,509,102754,53139
160492,13023.83946305,1671628252.988,509,102707,53153
160492,13023.83946305,1671628252.988,509,102707,53153
160493,13023.8545355,1671628252.988,509,102675,53144
160493,13023.8545355,1671628252.988,509,102675,53144
160494,13023.870598733334,1671628253.085,511,102689,53126
160494,13023.870598733334,1671628253.085,511,102689,53126
160495,13023.886661966668,1671628253.085,509,102740,53144
160495,13023.886661966668,1671628253.085,509,102740,53144
160496,13023.902725200001,1671628253.085,510,102708,53116
160496,13023.902725200001,1671628253.085,510,102708,53116
160497,13023.918788433333,1671628253.085,509,102725,53130
160497,13023.918788433333,1671628253.085,509,102725,53130
160498,13023.934851666667,1671628253.085,508,102696,53135
160498,13023.934851666667,1671628253.085,508,102696,53135
160499,13023.9509149,1671628253.085,509,102766,53142
160499,13023.9509149,1671628253.085,509,102766,53142
160500,13023.967270683333,1671628253.183,510,102776,53156
160500,13023.967270683333,1671628253.183,510,102776,53156
160501,13023.983626466666,1671628253.183,508,102850,53183
160501,13023.983626466666,1671628253.183,508,102850,53183
160502,13023.99998225,1671628253.183,510,102749,53141
160502,13023.99998225,1671628253.183,510,102749,53141
160503,13024.016338033334,1671628253.183,511,102842,53168
160503,13024.016338033334,1671628253.183,511,102842,53168
160504,13024.032693816667,1671628253.183,508,102887,53182
160504,13024.032693816667,1671628253.183,508,102887,53182
160505,13024.0490496,1671628253.183,509,102874,53168
160505,13024.0490496,1671628253.183,509,102874,53168
160506,13024.063606833333,1671628253.27,509,102881,53168
160506,13024.063606833333,1671628253.27,509,102881,53168
160507,13024.078164066666,1671628253.27,509,102954,53196
160507,13024.078164066666,1671628253.27,509,102954,53196
160508,13024.0927213,1671628253.27,508,103010,53205
160508,13024.0927213,1671628253.27,508,103010,53205
160509,13024.107278533334,1671628253.27,508,102968,53187
160509,13024.107278533334,1671628253.27,508,102968,53187
160510,13024.121835766668,1671628253.27,511,103027,53216
160510,13024.121835766668,1671628253.27,511,103027,53216
160511,13024.136393,1671628253.27,511,103039,53186
160511,13024.136393,1671628253.27,511,103039,53186
160512,13024.151822516667,1671628253.363,510,103025,53217
160512,13024.151822516667,1671628253.363,510,103025,53217
160513,13024.167252033334,1671628253.363,511,103043,53201
160513,13024.167252033334,1671628253.363,511,103043,53201
160514,13024.18268155,1671628253.363,509,103092,53210
160514,13024.18268155,1671628253.363,509,103092,53210
160515,13024.198111066667,1671628253.363,508,103084,53209
160515,13024.198111066667,1671628253.363,508,103084,53209
160516,13024.213540583334,1671628253.363,509,103185,53243
160516,13024.213540583334,1671628253.363,509,103185,53243
160517,13024.2289701,1671628253.363,507,103161,53250
160517,13024.2289701,1671628253.363,507,103161,53250
160518,13024.244301216668,1671628253.455,509,103227,53244
160518,13024.244301216668,1671628253.455,509,103227,53244
160519,13024.259632333335,1671628253.455,509,103251,53281
160519,13024.259632333335,1671628253.455,509,103251,53281
160520,13024.27496345,1671628253.455,512,103227,53235
160520,13024.27496345,1671628253.455,512,103227,53235
160521,13024.290294566666,1671628253.455,510,103129,53202
160521,13024.290294566666,1671628253.455,510,103129,53202
160522,13024.305625683333,1671628253.455,509,103032,53210
160522,13024.305625683333,1671628253.455,509,103032,53210
160523,13024.3209568,1671628253.455,510,102834,53162
160523,13024.3209568,1671628253.455,510,102834,53162
160524,13024.337650766667,1671628253.555,510,102752,53136
160524,13024.337650766667,1671628253.555,510,102752,53136
160525,13024.354344733334,1671628253.555,510,102747,53113
160525,13024.354344733334,1671628253.555,510,102747,53113
160526,13024.3710387,1671628253.555,510,102772,53112
160526,13024.3710387,1671628253.555,510,102772,53112
160527,13024.387732666666,1671628253.555,509,102703,53117
160527,13024.387732666666,1671628253.555,509,102703,53117
160528,13024.404426633333,1671628253.555,511,102703,53128
160528,13024.404426633333,1671628253.555,511,102703,53128
160529,13024.4211206,1671628253.555,509,102691,53090
160529,13024.4211206,1671628253.555,509,102691,53090
160530,13024.436907366668,1671628253.65,509,102755,53118
160530,13024.436907366668,1671628253.65,509,102755,53118
160531,13024.452694133333,1671628253.65,509,102776,53109
160531,13024.452694133333,1671628253.65,509,102776,53109
160532,13024.4684809,1671628253.65,508,102797,53116
160532,13024.4684809,1671628253.65,508,102797,53116
160533,13024.484267666667,1671628253.65,509,102836,53130
160533,13024.484267666667,1671628253.65,509,102836,53130
160534,13024.500054433334,1671628253.65,510,102827,53117
160534,13024.500054433334,1671628253.65,510,102827,53117
160535,13024.5158412,1671628253.65,509,102828,53119
160535,13024.5158412,1671628253.65,509,102828,53119
160536,13024.530457116667,1671628253.737,509,102773,53120
160536,13024.530457116667,1671628253.737,509,102773,53120
160537,13024.545073033334,1671628253.737,510,102839,53151
160537,13024.545073033334,1671628253.737,510,102839,53151
160538,13024.559688950001,1671628253.737,509,102874,53123
160538,13024.559688950001,1671628253.737,509,102874,53123
160539,13024.574304866666,1671628253.737,509,102879,53142
160539,13024.574304866666,1671628253.737,509,102879,53142
160540,13024.588920783333,1671628253.737,508,102745,53119
160540,13024.588920783333,1671628253.737,508,102745,53119
160541,13024.6035367,1671628253.737,509,102792,53100
160541,13024.6035367,1671628253.737,509,102792,53100
160542,13024.621257416668,1671628253.844,509,102779,53095
160542,13024.621257416668,1671628253.844,509,102779,53095
160543,13024.638978133333,1671628253.844,510,102821,53102
160543,13024.638978133333,1671628253.844,510,102821,53102
160544,13024.65669885,1671628253.844,510,102832,53114
160544,13024.65669885,1671628253.844,510,102832,53114
160545,13024.674419566667,1671628253.844,507,102896,53122
160545,13024.674419566667,1671628253.844,507,102896,53122
160546,13024.692140283332,1671628253.844,509,102810,53099
160546,13024.692140283332,1671628253.844,509,102810,53099
160547,13024.709861,1671628253.844,510,102820,53103
160547,13024.709861,1671628253.844,510,102820,53103
160548,13024.723901616666,1671628253.928,510,102821,53118
160548,13024.723901616666,1671628253.928,510,102821,53118
160549,13024.737942233332,1671628253.928,511,102936,53129
160549,13024.737942233332,1671628253.928,511,102936,53129
160550,13024.75198285,1671628253.928,509,102932,53145
160550,13024.75198285,1671628253.928,509,102932,53145
160551,13024.766023466667,1671628253.928,510,102911,53131
160551,13024.766023466667,1671628253.928,510,102911,53131
160552,13024.780064083334,1671628253.928,510,102980,53142
160552,13024.780064083334,1671628253.928,510,102980,53142
160553,13024.7941047,1671628253.928,509,103000,53143
160553,13024.7941047,1671628253.928,509,103000,53143
160554,13024.809893783335,1671628254.023,509,103065,53141
160554,13024.809893783335,1671628254.023,509,103065,53141
160555,13024.825682866667,1671628254.023,508,103094,53156
160555,13024.825682866667,1671628254.023,508,103094,53156
160556,13024.84147195,1671628254.023,509,103070,53157
160556,13024.84147195,1671628254.023,509,103070,53157
160557,13024.857261033334,1671628254.023,509,103122,53151
160557,13024.857261033334,1671628254.023,509,103122,53151
160558,13024.873050116668,1671628254.023,509,103079,53169
160558,13024.873050116668,1671628254.023,509,103079,53169
160559,13024.8888392,1671628254.023,508,103169,53181
160559,13024.8888392,1671628254.023,508,103169,53181
160560,13024.904301100001,1671628254.115,508,103136,53172
160560,13024.904301100001,1671628254.115,508,103136,53172
160561,13024.919763,1671628254.115,508,103131,53173
160561,13024.919763,1671628254.115,508,103131,53173
160562,13024.9352249,1671628254.115,507,103263,53183
160562,13024.9352249,1671628254.115,507,103263,53183
160563,13024.9506868,1671628254.115,508,103252,53205
160563,13024.9506868,1671628254.115,508,103252,53205
160564,13024.9661487,1671628254.115,508,103235,53204
160564,13024.9661487,1671628254.115,508,103235,53204
160565,13024.9816106,1671628254.115,509,103157,53196
160565,13024.9816106,1671628254.115,509,103157,53196
160566,13024.9965536,1671628254.205,508,103017,53163
160566,13024.9965536,1671628254.205,508,103017,53163
160567,13025.0114966,1671628254.205,509,102886,53114
160567,13025.0114966,1671628254.205,509,102886,53114
160568,13025.0264396,1671628254.205,509,102872,53109
160568,13025.0264396,1671628254.205,509,102872,53109
160569,13025.0413826,1671628254.205,509,102771,53069
160569,13025.0413826,1671628254.205,509,102771,53069
160570,13025.0563256,1671628254.205,510,102684,53026
160570,13025.0563256,1671628254.205,510,102684,53026
160571,13025.0712686,1671628254.205,509,102700,53044
160571,13025.0712686,1671628254.205,509,102700,53044
160572,13025.088230466667,1671628254.307,508,102735,53050
160572,13025.088230466667,1671628254.307,508,102735,53050
160573,13025.105192333334,1671628254.307,508,102758,53039
160573,13025.105192333334,1671628254.307,508,102758,53039
160574,13025.1221542,1671628254.307,509,102684,53037
160574,13025.1221542,1671628254.307,509,102684,53037
160575,13025.139116066666,1671628254.307,509,102652,53053
160575,13025.139116066666,1671628254.307,509,102652,53053
160576,13025.156077933334,1671628254.307,507,102776,53036
160576,13025.156077933334,1671628254.307,507,102776,53036
160577,13025.1730398,1671628254.307,508,102793,53039
160577,13025.1730398,1671628254.307,508,102793,53039
160578,13025.1880867,1671628254.397,509,102774,53051
160578,13025.1880867,1671628254.397,509,102774,53051
160579,13025.2031336,1671628254.397,508,102774,53048
160579,13025.2031336,1671628254.397,508,102774,53048
160580,13025.2181805,1671628254.397,507,102723,53030
160580,13025.2181805,1671628254.397,507,102723,53030
160581,13025.2332274,1671628254.397,508,102758,53047
160581,13025.2332274,1671628254.397,508,102758,53047
160582,13025.2482743,1671628254.397,507,102771,53040
160582,13025.2482743,1671628254.397,507,102771,53040
160583,13025.2633212,1671628254.397,509,102807,53052
160583,13025.2633212,1671628254.397,509,102807,53052
160584,13025.2785533,1671628254.489,507,102869,53067
160584,13025.2785533,1671628254.489,507,102869,53067
160585,13025.2937854,1671628254.489,507,102855,53053
160585,13025.2937854,1671628254.489,507,102855,53053
160586,13025.3090175,1671628254.489,508,102834,53030
160586,13025.3090175,1671628254.489,508,102834,53030
160587,13025.3242496,1671628254.489,507,102850,53034
160587,13025.3242496,1671628254.489,507,102850,53034
160588,13025.339481699999,1671628254.489,506,102800,53025
160588,13025.339481699999,1671628254.489,506,102800,53025
160589,13025.3547138,1671628254.489,508,102827,53028
160589,13025.3547138,1671628254.489,508,102827,53028
160590,13025.3707124,1671628254.585,508,102777,53000
160590,13025.3707124,1671628254.585,508,102777,53000
160591,13025.386711,1671628254.585,509,102805,53010
160591,13025.386711,1671628254.585,509,102805,53010
160592,13025.402709599999,1671628254.585,510,102792,53012
160592,13025.402709599999,1671628254.585,510,102792,53012
160593,13025.4187082,1671628254.585,507,102877,53059
160593,13025.4187082,1671628254.585,507,102877,53059
160594,13025.4347068,1671628254.585,508,102835,53026
160594,13025.4347068,1671628254.585,508,102835,53026
160595,13025.4507054,1671628254.585,509,102887,53018
160595,13025.4507054,1671628254.585,509,102887,53018
160596,13025.4675775,1671628254.686,508,102926,53053
160596,13025.4675775,1671628254.686,508,102926,53053
160597,13025.4844496,1671628254.686,510,102864,53021
160597,13025.4844496,1671628254.686,510,102864,53021
160598,13025.501321700001,1671628254.686,508,103054,53080
160598,13025.501321700001,1671628254.686,508,103054,53080
160599,13025.5181938,1671628254.686,509,102986,53037
160599,13025.5181938,1671628254.686,509,102986,53037
160600,13025.5350659,1671628254.686,508,103014,53064
160600,13025.5350659,1671628254.686,508,103014,53064
160601,13025.551938,1671628254.686,509,103026,53067
160601,13025.551938,1671628254.686,509,103026,53067
160602,13025.566103383333,1671628254.771,509,103049,53067
160602,13025.566103383333,1671628254.771,509,103049,53067
160603,13025.580268766667,1671628254.771,508,103063,53077
160603,13025.580268766667,1671628254.771,508,103063,53077
160604,13025.59443415,1671628254.771,507,103086,53085
160604,13025.59443415,1671628254.771,507,103086,53085
160605,13025.608599533332,1671628254.771,508,103043,53052
160605,13025.608599533332,1671628254.771,508,103043,53052
160606,13025.622764916667,1671628254.771,508,103147,53095
160606,13025.622764916667,1671628254.771,508,103147,53095
160607,13025.6369303,1671628254.771,508,103163,53089
160607,13025.6369303,1671628254.771,508,103163,53089
160608,13025.6523733,1671628254.863,508,103293,53127
160608,13025.6523733,1671628254.863,508,103293,53127
160609,13025.6678163,1671628254.863,508,103247,53099
160609,13025.6678163,1671628254.863,508,103247,53099
160610,13025.6832593,1671628254.863,509,103212,53071
160610,13025.6832593,1671628254.863,509,103212,53071
160611,13025.6987023,1671628254.863,508,103122,53053
160611,13025.6987023,1671628254.863,508,103122,53053
160612,13025.7141453,1671628254.863,507,103017,53039
160612,13025.7141453,1671628254.863,507,103017,53039
160613,13025.7295883,1671628254.863,509,102859,52998
160613,13025.7295883,1671628254.863,509,102859,52998
160614,13025.746780266667,1671628254.967,508,102717,52964
160614,13025.746780266667,1671628254.967,508,102717,52964
160615,13025.763972233333,1671628254.967,510,102674,52931
160615,13025.763972233333,1671628254.967,510,102674,52931
160616,13025.781164200002,1671628254.967,509,102645,52940
160616,13025.781164200002,1671628254.967,509,102645,52940
160617,13025.798356166668,1671628254.967,509,102575,52914
160617,13025.798356166668,1671628254.967,509,102575,52914
160618,13025.815548133334,1671628254.967,508,102626,52918
160618,13025.815548133334,1671628254.967,508,102626,52918
160619,13025.8327401,1671628254.967,509,102563,52907
160619,13025.8327401,1671628254.967,509,102563,52907
160620,13025.84744565,1671628255.055,507,102661,52925
160620,13025.84744565,1671628255.055,507,102661,52925
160621,13025.8621512,1671628255.055,507,102626,52903
160621,13025.8621512,1671628255.055,507,102626,52903
160622,13025.876856750001,1671628255.055,509,102622,52912
160622,13025.876856750001,1671628255.055,509,102622,52912
160623,13025.8915623,1671628255.055,508,102660,52905
160623,13025.8915623,1671628255.055,508,102660,52905
160624,13025.90626785,1671628255.055,509,102629,52898
160624,13025.90626785,1671628255.055,509,102629,52898
160625,13025.9209734,1671628255.055,510,102661,52898
160625,13025.9209734,1671628255.055,510,102661,52898
160626,13025.937311533333,1671628255.153,507,102696,52892
160626,13025.937311533333,1671628255.153,507,102696,52892
160627,13025.953649666666,1671628255.153,508,102686,52885
160627,13025.953649666666,1671628255.153,508,102686,52885
160628,13025.9699878,1671628255.153,508,102655,52903
160628,13025.9699878,1671628255.153,508,102655,52903
160629,13025.986325933334,1671628255.153,508,102693,52886
160629,13025.986325933334,1671628255.153,508,102693,52886
160630,13026.002664066667,1671628255.153,508,102652,52882
160630,13026.002664066667,1671628255.153,508,102652,52882
160631,13026.0190022,1671628255.153,508,102693,52894
160631,13026.0190022,1671628255.153,508,102693,52894
160632,13026.033540166667,1671628255.24,508,102625,52855
160632,13026.033540166667,1671628255.24,508,102625,52855
160633,13026.048078133334,1671628255.24,507,102690,52881
160633,13026.048078133334,1671628255.24,507,102690,52881
160634,13026.0626161,1671628255.24,508,102626,52844
160634,13026.0626161,1671628255.24,508,102626,52844
160635,13026.077154066666,1671628255.24,508,102614,52861
160635,13026.077154066666,1671628255.24,508,102614,52861
160636,13026.091692033333,1671628255.24,507,102677,52853
160636,13026.091692033333,1671628255.24,507,102677,52853
160637,13026.10623,1671628255.24,509,102693,52866
160637,13026.10623,1671628255.24,509,102693,52866
160638,13026.121916066666,1671628255.334,508,102736,52857
160638,13026.121916066666,1671628255.334,508,102736,52857
160639,13026.137602133333,1671628255.334,508,102776,52872
160639,13026.137602133333,1671628255.334,508,102776,52872
160640,13026.1532882,1671628255.334,508,102769,52881
160640,13026.1532882,1671628255.334,508,102769,52881
160641,13026.168974266668,1671628255.334,508,102652,52856
160641,13026.168974266668,1671628255.334,508,102652,52856
160642,13026.178463893642,1671628255.334,509,102702,52868
160642,13026.185784785386,1671628255.334,509,102702,52868
160643,13026.19310567713,1671628255.334,508,102814,52886
160643,13026.200426568874,1671628255.334,508,102814,52886
160644,13026.207747460618,1671628255.432,509,102871,52886
160644,13026.215068352361,1671628255.432,509,102871,52886
160645,13026.222389244105,1671628255.432,507,102824,52885
160645,13026.229710135849,1671628255.432,507,102824,52885
160646,13026.237031027593,1671628255.432,508,102847,52876
160646,13026.244351919337,1671628255.432,508,102847,52876
160647,13026.25167281108,1671628255.432,509,102939,52888
160647,13026.258993702824,1671628255.432,509,102939,52888
160648,13026.266314594568,1671628255.432,509,102909,52899
160648,13026.273635486312,1671628255.432,509,102909,52899
160649,13026.280956378056,1671628255.432,508,102858,52889
160649,13026.2882772698,1671628255.432,508,102858,52889
160650,13026.295598161543,1671628255.523,507,102992,52924
160650,13026.302919053287,1671628255.523,507,102992,52924
160651,13026.31023994503,1671628255.523,509,102986,52904
160651,13026.317560836775,1671628255.523,509,102986,52904
160652,13026.337801264215,1671628255.523,508,102975,52898
160652,13026.345057488437,1671628255.523,508,102975,52898
160653,13026.35231371266,1671628255.523,507,102986,52913
160653,13026.359569936882,1671628255.523,507,102986,52913
160654,13026.366826161104,1671628255.523,508,102997,52923
160654,13026.374082385326,1671628255.523,508,102997,52923
160655,13026.381338609548,1671628255.523,509,103055,52922
160655,13026.38859483377,1671628255.523,509,103055,52922
160656,13026.395851057992,1671628255.611,507,103091,52942
160656,13026.403107282214,1671628255.611,507,103091,52942
160657,13026.410363506437,1671628255.611,508,103079,52936
160657,13026.417619730659,1671628255.611,508,103079,52936
160658,13026.424875954881,1671628255.611,509,103023,52921
160658,13026.432132179103,1671628255.611,509,103023,52921
160659,13026.439388403325,1671628255.611,508,102851,52893
160659,13026.446644627547,1671628255.611,508,102851,52893
160660,13026.45390085177,1671628255.611,507,102789,52850
160660,13026.461157075992,1671628255.611,507,102789,52850
160661,13026.468413300214,1671628255.611,508,102635,52814
160661,13026.475669524436,1671628255.611,508,102635,52814
160662,13026.486554960948,1671628255.708,508,102631,52792
160662,13026.493484881641,1671628255.708,508,102631,52792
160663,13026.500414802334,1671628255.708,508,102495,52765
160663,13026.507344723028,1671628255.708,508,102495,52765
160664,13026.514274643721,1671628255.708,509,102453,52755
160664,13026.521204564415,1671628255.708,509,102453,52755
160665,13026.528134485108,1671628255.708,509,102467,52744
160665,13026.535064405802,1671628255.708,509,102467,52744
160666,13026.541994326495,1671628255.708,509,102473,52732
160666,13026.548924247189,1671628255.708,509,102473,52732
160667,13026.555854167882,1671628255.708,507,102502,52755
160667,13026.562784088575,1671628255.708,507,102502,52755
160668,13026.569714009269,1671628255.805,509,102427,52734
160668,13026.576643929962,1671628255.805,509,102427,52734
160669,13026.583573850656,1671628255.805,508,102512,52756
160669,13026.59050377135,1671628255.805,508,102512,52756
160670,13026.597433692043,1671628255.805,509,102442,52710
160670,13026.604363612736,1671628255.805,509,102442,52710
160671,13026.61129353343,1671628255.805,508,102504,52747
160671,13026.618223454123,1671628255.805,508,102504,52747
160672,13026.648852987435,1671628255.805,509,102414,52725
160672,13026.65641798219,1671628255.805,509,102414,52725
160673,13026.663982976946,1671628255.805,509,102463,52731
160673,13026.671547971702,1671628255.805,509,102463,52731
160674,13026.679112966458,1671628255.898,508,102472,52732
160674,13026.686677961214,1671628255.898,508,102472,52732
160675,13026.69424295597,1671628255.898,507,102529,52726
160675,13026.701807950725,1671628255.898,507,102529,52726
160676,13026.709372945481,1671628255.898,507,102491,52716
160676,13026.716937940237,1671628255.898,507,102491,52716
160677,13026.724502934992,1671628255.898,508,102521,52729
160677,13026.732067929748,1671628255.898,508,102521,52729
160678,13026.739632924504,1671628255.898,507,102559,52709
160678,13026.74719791926,1671628255.898,507,102559,52709
160679,13026.754762914015,1671628255.898,509,102500,52719
160679,13026.762327908771,1671628255.898,509,102500,52719
160680,13026.769892903527,1671628255.989,508,102388,52728
160680,13026.777457898283,1671628255.989,508,102388,52728
160681,13026.785022893038,1671628255.989,510,102406,52676
160681,13026.792587887794,1671628255.989,510,102406,52676
160682,13026.803501708462,1671628255.989,510,102475,52691
160682,13026.810658679286,1671628255.989,510,102475,52691
160683,13026.817815650109,1671628255.989,508,102528,52706
160683,13026.824972620932,1671628255.989,508,102528,52706
160684,13026.832129591756,1671628255.989,508,102448,52709
160684,13026.83928656258,1671628255.989,508,102448,52709
160685,13026.846443533403,1671628255.989,507,102490,52703
160685,13026.853600504226,1671628255.989,507,102490,52703
160686,13026.86075747505,1671628256.085,507,102453,52687
160686,13026.867914445873,1671628256.085,507,102453,52687
160687,13026.875071416696,1671628256.085,507,102591,52712
160687,13026.88222838752,1671628256.085,507,102591,52712
160688,13026.889385358343,1671628256.085,508,102535,52701
160688,13026.896542329167,1671628256.085,508,102535,52701
160689,13026.90369929999,1671628256.085,509,102563,52716
160689,13026.910856270813,1671628256.085,509,102563,52716
160690,13026.918013241637,1671628256.085,508,102615,52730
160690,13026.92517021246,1671628256.085,508,102615,52730
160691,13026.932327183284,1671628256.085,509,102565,52707
160691,13026.939484154107,1671628256.085,509,102565,52707
160692,13026.960669550299,1671628256.176,508,102682,52728
160692,13026.968160416107,1671628256.176,508,102682,52728
160693,13026.975651281915,1671628256.176,509,102598,52706
160693,13026.983142147723,1671628256.176,509,102598,52706
160694,13026.99063301353,1671628256.176,506,102717,52750
160694,13026.998123879339,1671628256.176,506,102717,52750
160695,13027.005614745147,1671628256.176,506,102668,52745
160695,13027.013105610955,1671628256.176,506,102668,52745
160696,13027.020596476763,1671628256.176,510,102655,52727
160696,13027.02808734257,1671628256.176,510,102655,52727
160697,13027.035578208379,1671628256.176,509,102725,52752
160697,13027.043069074187,1671628256.176,509,102725,52752
160698,13027.050559939995,1671628256.268,508,102693,52742
160698,13027.058050805803,1671628256.268,508,102693,52742
160699,13027.06554167161,1671628256.268,507,102730,52737
160699,13027.073032537419,1671628256.268,507,102730,52737
160700,13027.080523403227,1671628256.268,508,102757,52757
160700,13027.088014269035,1671628256.268,508,102757,52757
160701,13027.095505134843,1671628256.268,507,102750,52759
160701,13027.10299600065,1671628256.268,507,102750,52759
160702,13027.112869853137,1671628256.268,508,102789,52751
160702,13027.120025920147,1671628256.268,508,102789,52751
160703,13027.127181987156,1671628256.268,508,102852,52779
160703,13027.134338054166,1671628256.268,508,102852,52779
160704,13027.141494121175,1671628256.357,508,102820,52767
160704,13027.148650188185,1671628256.357,508,102820,52767
160705,13027.155806255194,1671628256.357,508,102901,52781
160705,13027.162962322203,1671628256.357,508,102901,52781
160706,13027.170118389213,1671628256.357,509,102931,52784
160706,13027.177274456222,1671628256.357,509,102931,52784
160707,13027.184430523232,1671628256.357,509,102935,52763
160707,13027.191586590241,1671628256.357,509,102935,52763
160708,13027.19874265725,1671628256.357,509,102781,52743
160708,13027.20589872426,1671628256.357,509,102781,52743
160709,13027.21305479127,1671628256.357,509,102628,52710
160709,13027.220210858279,1671628256.357,509,102628,52710
160710,13027.227366925288,1671628256.45,509,102519,52677
160710,13027.234522992298,1671628256.45,509,102519,52677
160711,13027.241679059307,1671628256.45,508,102454,52659
160711,13027.248835126316,1671628256.45,508,102454,52659
160712,13027.26367309382,1671628256.45,510,102371,52622
160712,13027.270827427445,1671628256.45,510,102371,52622
160713,13027.27798176107,1671628256.45,510,102358,52616
160713,13027.285136094695,1671628256.45,510,102358,52616
160714,13027.29229042832,1671628256.45,510,102263,52613
160714,13027.299444761946,1671628256.45,510,102263,52613
160715,13027.306599095571,1671628256.45,508,102398,52625
160715,13027.313753429196,1671628256.45,508,102398,52625
160716,13027.320907762822,1671628256.554,508,102357,52619
160716,13027.328062096447,1671628256.554,508,102357,52619
160717,13027.335216430072,1671628256.554,509,102310,52621
160717,13027.342370763698,1671628256.554,509,102310,52621
160718,13027.349525097323,1671628256.554,508,102296,52602
160718,13027.356679430948,1671628256.554,508,102296,52602
160719,13027.363833764573,1671628256.554,508,102257,52618
160719,13027.370988098199,1671628256.554,508,102257,52618
160720,13027.378142431824,1671628256.554,509,102269,52592
160720,13027.38529676545,1671628256.554,509,102269,52592
160721,13027.392451099075,1671628256.554,509,102309,52586
160721,13027.3996054327,1671628256.554,509,102309,52586
160722,13027.430983621362,1671628256.651,508,102369,52608
160722,13027.43912714103,1671628256.651,508,102369,52608
160723,13027.447270660698,1671628256.651,509,102346,52581
160723,13027.455414180366,1671628256.651,509,102346,52581
160724,13027.463557700034,1671628256.651,508,102338,52583
160724,13027.471701219702,1671628256.651,508,102338,52583
160725,13027.47984473937,1671628256.651,509,102367,52580
160725,13027.487988259038,1671628256.651,509,102367,52580
160726,13027.496131778706,1671628256.651,509,102326,52577
160726,13027.504275298374,1671628256.651,509,102326,52577
160727,13027.512418818042,1671628256.651,509,102301,52575
160727,13027.52056233771,1671628256.651,509,102301,52575
160728,13027.528705857378,1671628256.738,508,102389,52598
160728,13027.536849377046,1671628256.738,508,102389,52598
160729,13027.544992896714,1671628256.738,509,102316,52568
160729,13027.553136416382,1671628256.738,509,102316,52568
160730,13027.56127993605,1671628256.738,509,102296,52553
160730,13027.569423455718,1671628256.738,509,102296,52553
160731,13027.577566975386,1671628256.738,509,102256,52551
160731,13027.585710495054,1671628256.738,509,102256,52551
160732,13027.584161873538,1671628256.738,509,102324,52560
160732,13027.591040475549,1671628256.738,509,102324,52560
160733,13027.59791907756,1671628256.738,508,102339,52539
160733,13027.60479767957,1671628256.738,508,102339,52539
160734,13027.611676281582,1671628256.835,508,102337,52558
160734,13027.618554883593,1671628256.835,508,102337,52558
160735,13027.625433485604,1671628256.835,510,102304,52557
160735,13027.632312087615,1671628256.835,510,102304,52557
160736,13027.639190689626,1671628256.835,509,102368,52572
160736,13027.646069291637,1671628256.835,509,102368,52572
160737,13027.652947893648,1671628256.835,509,102385,52577
160737,13027.65982649566,1671628256.835,509,102385,52577
160738,13027.66670509767,1671628256.835,510,102391,52550
160738,13027.673583699681,1671628256.835,510,102391,52550
160739,13027.680462301692,1671628256.835,509,102309,52579
160739,13027.687340903703,1671628256.835,509,102309,52579
160740,13027.694219505714,1671628256.928,508,102471,52595
160740,13027.701098107726,1671628256.928,508,102471,52595
160741,13027.707976709737,1671628256.928,509,102513,52590
160741,13027.714855311748,1671628256.928,509,102513,52590
160742,13027.742153538318,1671628256.928,510,102450,52584
160742,13027.749501635728,1671628256.928,510,102450,52584
160743,13027.756849733138,1671628256.928,510,102536,52594
160743,13027.764197830547,1671628256.928,510,102536,52594
160744,13027.771545927957,1671628256.928,508,102535,52598
160744,13027.778894025367,1671628256.928,508,102535,52598
160745,13027.786242122776,1671628256.928,509,102526,52595
160745,13027.793590220186,1671628256.928,509,102526,52595
160746,13027.800938317596,1671628257.017,509,102590,52608
160746,13027.808286415006,1671628257.017,509,102590,52608
160747,13027.815634512415,1671628257.017,509,102576,52605
160747,13027.822982609825,1671628257.017,509,102576,52605
160748,13027.830330707235,1671628257.017,508,102602,52615
160748,13027.837678804644,1671628257.017,508,102602,52615
160749,13027.845026902054,1671628257.017,510,102593,52610
160749,13027.852374999464,1671628257.017,510,102593,52610
160750,13027.859723096873,1671628257.017,508,102595,52645
160750,13027.867071194283,1671628257.017,508,102595,52645
160751,13027.874419291693,1671628257.017,509,102651,52615
160751,13027.881767389103,1671628257.017,509,102651,52615
160752,13027.89256701093,1671628257.114,509,102711,52625
160752,13027.899535003336,1671628257.114,509,102711,52625
160753,13027.906502995744,1671628257.114,510,102684,52651
160753,13027.913470988151,1671628257.114,510,102684,52651
160754,13027.920438980558,1671628257.114,508,102680,52616
160754,13027.927406972965,1671628257.114,508,102680,52616
160755,13027.934374965373,1671628257.114,509,102820,52655
160755,13027.94134295778,1671628257.114,509,102820,52655
160756,13027.948310950187,1671628257.114,508,102765,52631
160756,13027.955278942594,1671628257.114,508,102765,52631
160757,13027.962246935002,1671628257.114,507,102804,52646
160757,13027.969214927409,1671628257.114,507,102804,52646
160758,13027.976182919816,1671628257.207,509,102761,52641
160758,13027.983150912223,1671628257.207,509,102761,52641
160759,13027.99011890463,1671628257.207,509,102737,52630
160759,13027.997086897038,1671628257.207,509,102737,52630
160760,13028.004054889445,1671628257.207,509,102686,52632
160760,13028.011022881852,1671628257.207,509,102686,52632
160761,13028.01799087426,1671628257.207,509,102580,52600
160761,13028.024958866667,1671628257.207,509,102580,52600
160762,13028.051525048651,1671628257.207,509,102498,52563
160762,13028.05878857759,1671628257.207,509,102498,52563
160763,13028.066052106527,1671628257.207,509,102387,52531
160763,13028.073315635465,1671628257.207,509,102387,52531
160764,13028.080579164403,1671628257.307,508,102288,52510
160764,13028.087842693341,1671628257.307,508,102288,52510
160765,13028.09510622228,1671628257.307,510,102248,52515
160765,13028.102369751217,1671628257.307,510,102248,52515
160766,13028.109633280155,1671628257.307,508,102357,52525
160766,13028.116896809093,1671628257.307,508,102357,52525
160767,13028.124160338031,1671628257.307,509,102266,52490
160767,13028.13142386697,1671628257.307,509,102266,52490
160768,13028.138687395907,1671628257.307,509,102330,52501
160768,13028.145950924845,1671628257.307,509,102330,52501
160769,13028.153214453783,1671628257.307,510,102230,52494
160769,13028.160477982721,1671628257.307,510,102230,52494
160770,13028.16774151166,1671628257.397,510,102265,52499
160770,13028.175005040597,1671628257.397,510,102265,52499
160771,13028.182268569535,1671628257.397,509,102272,52489
160771,13028.189532098473,1671628257.397,509,102272,52489
160772,13028.21296119145,1671628257.397,511,102264,52486
160772,13028.220243674963,1671628257.397,511,102264,52486
160773,13028.227526158476,1671628257.397,508,102284,52489
160773,13028.23480864199,1671628257.397,508,102284,52489
160774,13028.242091125503,1671628257.397,511,102284,52500
160774,13028.249373609016,1671628257.397,511,102284,52500
160775,13028.25665609253,1671628257.397,510,102278,52489
160775,13028.263938576043,1671628257.397,510,102278,52489
160776,13028.271221059556,1671628257.488,510,102412,52513
160776,13028.27850354307,1671628257.488,510,102412,52513
160777,13028.285786026583,1671628257.488,509,102332,52496
160777,13028.293068510096,1671628257.488,509,102332,52496
160778,13028.30035099361,1671628257.488,510,102327,52476
160778,13028.307633477123,1671628257.488,510,102327,52476
160779,13028.314915960636,1671628257.488,509,102339,52496
160779,13028.32219844415,1671628257.488,509,102339,52496
160780,13028.329480927663,1671628257.488,509,102321,52470
160780,13028.336763411176,1671628257.488,509,102321,52470
160781,13028.34404589469,1671628257.488,509,102343,52480
160781,13028.351328378203,1671628257.488,509,102343,52480
160782,13028.363370505209,1671628257.583,508,102319,52478
160782,13028.370451626697,1671628257.583,508,102319,52478
160783,13028.377532748185,1671628257.583,509,102355,52468
160783,13028.384613869674,1671628257.583,509,102355,52468
160784,13028.391694991162,1671628257.583,510,102265,52472
160784,13028.39877611265,1671628257.583,510,102265,52472
160785,13028.405857234138,1671628257.583,510,102325,52450
160785,13028.412938355626,1671628257.583,510,102325,52450
160786,13028.420019477115,1671628257.583,510,102239,52462
160786,13028.427100598603,1671628257.583,510,102239,52462
160787,13028.434181720091,1671628257.583,509,102339,52488
160787,13028.44126284158,1671628257.583,509,102339,52488
160788,13028.448343963068,1671628257.683,509,102346,52463
160788,13028.455425084556,1671628257.683,509,102346,52463
160789,13028.462506206044,1671628257.683,507,102327,52490
160789,13028.469587327532,1671628257.683,507,102327,52490
160790,13028.47666844902,1671628257.683,508,102464,52515
160790,13028.483749570509,1671628257.683,508,102464,52515
160791,13028.490830691997,1671628257.683,508,102471,52496
160791,13028.497911813485,1671628257.683,508,102471,52496
160792,13028.52593046676,1671628257.683,508,102423,52505
160792,13028.533695907576,1671628257.683,508,102423,52505
160793,13028.541461348392,1671628257.683,510,102442,52495
160793,13028.549226789208,1671628257.683,510,102442,52495
160794,13028.556992230024,1671628257.772,510,102375,52509
160794,13028.56475767084,1671628257.772,510,102375,52509
160795,13028.572523111656,1671628257.772,509,102508,52509
160795,13028.580288552472,1671628257.772,509,102508,52509
160796,13028.588053993288,1671628257.772,508,102447,52503
160796,13028.595819434104,1671628257.772,508,102447,52503
160797,13028.60358487492,1671628257.772,508,102533,52494
160797,13028.611350315736,1671628257.772,508,102533,52494
160798,13028.619115756552,1671628257.772,508,102510,52534
160798,13028.626881197368,1671628257.772,508,102510,52534
160799,13028.634646638184,1671628257.772,508,102540,52514
160799,13028.642412079,1671628257.772,508,102540,52514
160800,13028.650177519816,1671628257.86,510,102557,52502
160800,13028.657942960632,1671628257.86,510,102557,52502
160801,13028.665708401448,1671628257.86,510,102659,52555
160801,13028.673473842264,1671628257.86,510,102659,52555
160802,13028.676248674728,1671628257.86,510,102568,52528
160802,13028.68315192754,1671628257.86,510,102568,52528
160803,13028.690055180352,1671628257.86,510,102563,52519
160803,13028.696958433164,1671628257.86,510,102563,52519
160804,13028.703861685975,1671628257.86,508,102623,52553
160804,13028.710764938787,1671628257.86,508,102623,52553
160805,13028.717668191599,1671628257.86,509,102628,52528
160805,13028.72457144441,1671628257.86,509,102628,52528
160806,13028.731474697222,1671628257.956,509,102735,52562
160806,13028.738377950034,1671628257.956,509,102735,52562
160807,13028.745281202846,1671628257.956,510,102643,52536
160807,13028.752184455658,1671628257.956,510,102643,52536
160808,13028.75908770847,1671628257.956,510,102679,52560
160808,13028.765990961281,1671628257.956,510,102679,52560
160809,13028.772894214093,1671628257.956,509,102754,52553
160809,13028.779797466905,1671628257.956,509,102754,52553
160810,13028.786700719716,1671628257.956,510,102659,52567
160810,13028.793603972528,1671628257.956,510,102659,52567
160811,13028.80050722534,1671628257.956,509,102753,52573
160811,13028.807410478152,1671628257.956,509,102753,52573
160812,13028.832144541211,1671628258.065,507,102791,52565
160812,13028.83966481995,1671628258.065,507,102791,52565
160813,13028.84718509869,1671628258.065,507,102658,52557
160813,13028.85470537743,1671628258.065,507,102658,52557
160814,13028.862225656168,1671628258.065,508,102664,52521
160814,13028.869745934908,1671628258.065,508,102664,52521
160815,13028.877266213647,1671628258.065,510,102529,52496
160815,13028.884786492386,1671628258.065,510,102529,52496
160816,13028.892306771126,1671628258.065,508,102420,52498
160816,13028.899827049865,1671628258.065,508,102420,52498
160817,13028.907347328604,1671628258.065,509,102367,52484
160817,13028.914867607344,1671628258.065,509,102367,52484
160818,13028.922387886083,1671628258.145,510,102264,52445
160818,13028.929908164822,1671628258.145,510,102264,52445
160819,13028.937428443562,1671628258.145,510,102337,52465
160819,13028.944948722301,1671628258.145,510,102337,52465
160820,13028.95246900104,1671628258.145,509,102320,52459
160820,13028.95998927978,1671628258.145,509,102320,52459
160821,13028.967509558519,1671628258.145,509,102305,52441
160821,13028.975029837258,1671628258.145,509,102305,52441
160822,13028.992838618693,1671628258.145,508,102269,52450
160822,13028.999180384379,1671628258.145,508,102269,52450
160823,13029.005522150064,1671628258.145,511,102227,52440
160823,13029.01186391575,1671628258.145,511,102227,52440
160824,13029.018205681436,1671628258.253,510,102211,52435
160824,13029.024547447121,1671628258.253,510,102211,52435
160825,13029.030889212807,1671628258.253,510,102318,52454
160825,13029.037230978493,1671628258.253,510,102318,52454
160826,13029.043572744178,1671628258.253,509,102303,52439
160826,13029.049914509864,1671628258.253,509,102303,52439
160827,13029.05625627555,1671628258.253,509,102317,52445
160827,13029.062598041235,1671628258.253,509,102317,52445
160828,13029.06893980692,1671628258.253,510,102367,52469
160828,13029.075281572606,1671628258.253,510,102367,52469
160829,13029.081623338292,1671628258.253,509,102388,52436
160829,13029.087965103978,1671628258.253,509,102388,52436
160830,13029.094306869663,1671628258.324,508,102400,52473
160830,13029.100648635349,1671628258.324,508,102400,52473
160831,13029.106990401035,1671628258.324,509,102303,52436
160831,13029.11333216672,1671628258.324,509,102303,52436
160832,13029.15187162246,1671628258.324,509,102318,52453
160832,13029.158288817549,1671628258.324,509,102318,52453
160833,13029.164706012638,1671628258.324,510,102262,52416
160833,13029.171123207727,1671628258.324,510,102262,52416
160834,13029.177540402816,1671628258.324,510,102312,52431
160834,13029.183957597905,1671628258.324,510,102312,52431
160835,13029.190374792994,1671628258.324,510,102249,52428
160835,13029.196791988083,1671628258.324,510,102249,52428
160836,13029.203209183172,1671628258.426,509,102334,52432
160836,13029.20962637826,1671628258.426,509,102334,52432
160837,13029.21604357335,1671628258.426,508,102334,52447
160837,13029.222460768438,1671628258.426,508,102334,52447
160838,13029.228877963527,1671628258.426,507,102288,52436
160838,13029.235295158616,1671628258.426,507,102288,52436
160839,13029.241712353705,1671628258.426,510,102251,52409
160839,13029.248129548794,1671628258.426,510,102251,52409
160840,13029.254546743883,1671628258.426,509,102375,52435
160840,13029.260963938972,1671628258.426,509,102375,52435
160841,13029.267381134061,1671628258.426,509,102376,52441
160841,13029.27379832915,1671628258.426,509,102376,52441
160842,13029.302863783207,1671628258.522,508,102453,52454
160842,13029.310814494382,1671628258.522,508,102453,52454
160843,13029.318765205557,1671628258.522,508,102440,52447
160843,13029.326715916732,1671628258.522,508,102440,52447
160844,13029.334666627907,1671628258.522,509,102390,52456
160844,13029.342617339082,1671628258.522,509,102390,52456
160845,13029.350568050257,1671628258.522,509,102331,52430
160845,13029.358518761432,1671628258.522,509,102331,52430
160846,13029.366469472607,1671628258.522,508,102452,52468
160846,13029.374420183782,1671628258.522,508,102452,52468
160847,13029.382370894957,1671628258.522,509,102481,52467
160847,13029.390321606132,1671628258.522,509,102481,52467
160848,13029.398272317307,1671628258.612,509,102436,52455
160848,13029.406223028482,1671628258.612,509,102436,52455
160849,13029.414173739657,1671628258.612,510,102475,52483
160849,13029.422124450832,1671628258.612,510,102475,52483
160850,13029.430075162007,1671628258.612,510,102557,52478
160850,13029.438025873182,1671628258.612,510,102557,52478
160851,13029.445976584357,1671628258.612,510,102585,52492
160851,13029.453927295532,1671628258.612,510,102585,52492
160852,13029.457005861992,1671628258.612,509,102616,52491
160852,13029.464065960165,1671628258.612,509,102616,52491
160853,13029.471126058337,1671628258.612,509,102578,52476
160853,13029.47818615651,1671628258.612,509,102578,52476
160854,13029.485246254682,1671628258.698,509,102536,52480
160854,13029.492306352855,1671628258.698,509,102536,52480
160855,13029.499366451028,1671628258.698,509,102658,52485
160855,13029.5064265492,1671628258.698,509,102658,52485
160856,13029.513486647373,1671628258.698,508,102545,52491
160856,13029.520546745545,1671628258.698,508,102545,52491
160857,13029.527606843718,1671628258.698,509,102589,52468
160857,13029.53466694189,1671628258.698,509,102589,52468
160858,13029.541727040063,1671628258.698,508,102629,52490
160858,13029.548787138236,1671628258.698,508,102629,52490
160859,13029.555847236408,1671628258.698,510,102626,52491
160859,13029.56290733458,1671628258.698,510,102626,52491
160860,13029.569967432753,1671628258.805,510,102671,52489
160860,13029.577027530926,1671628258.805,510,102671,52489
160861,13029.584087629099,1671628258.805,509,102716,52505
160861,13029.591147727271,1671628258.805,509,102716,52505
160862,13029.609851023599,1671628258.805,509,102669,52513
160862,13029.617749615492,1671628258.805,509,102669,52513
160863,13029.625648207386,1671628258.805,509,102815,52540
160863,13029.63354679928,1671628258.805,509,102815,52540
160864,13029.641445391173,1671628258.805,509,102721,52538
160864,13029.649343983067,1671628258.805,509,102721,52538
160865,13029.65724257496,1671628258.805,510,102758,52526
160865,13029.665141166854,1671628258.805,510,102758,52526
160866,13029.673039758747,1671628258.897,511,102696,52495
160866,13029.68093835064,1671628258.897,511,102696,52495
160867,13029.688836942534,1671628258.897,510,102551,52471
160867,13029.696735534428,1671628258.897,510,102551,52471
160868,13029.704634126321,1671628258.897,510,102520,52454
160868,13029.712532718215,1671628258.897,510,102520,52454
160869,13029.720431310108,1671628258.897,508,102448,52435
160869,13029.728329902002,1671628258.897,508,102448,52435
160870,13029.736228493895,1671628258.897,509,102407,52440
160870,13029.744127085789,1671628258.897,509,102407,52440
160871,13029.752025677682,1671628258.897,509,102330,52432
160871,13029.759924269576,1671628258.897,509,102330,52432
160872,13029.772110555416,1671628258.999,509,102397,52434
160872,13029.779261435413,1671628258.999,509,102397,52434
160873,13029.78641231541,1671628258.999,508,102265,52412
160873,13029.793563195408,1671628258.999,508,102265,52412
160874,13029.800714075405,1671628258.999,509,102427,52420
160874,13029.807864955403,1671628258.999,509,102427,52420
160875,13029.8150158354,1671628258.999,511,102335,52392
160875,13029.822166715398,1671628258.999,511,102335,52392
160876,13029.829317595395,1671628258.999,509,102366,52397
160876,13029.836468475392,1671628258.999,509,102366,52397
160877,13029.84361935539,1671628258.999,508,102401,52415
160877,13029.850770235387,1671628258.999,508,102401,52415
160878,13029.857921115385,1671628259.081,508,102335,52412
160878,13029.865071995382,1671628259.081,508,102335,52412
160879,13029.87222287538,1671628259.081,507,102359,52410
160879,13029.879373755377,1671628259.081,507,102359,52410
160880,13029.886524635374,1671628259.081,509,102413,52436
160880,13029.893675515372,1671628259.081,509,102413,52436
160881,13029.90082639537,1671628259.081,509,102395,52413
160881,13029.907977275367,1671628259.081,509,102395,52413
160882,13029.92830838118,1671628259.081,508,102430,52415
160882,13029.934757553747,1671628259.081,508,102430,52415
160883,13029.941206726313,1671628259.081,510,102406,52432
160883,13029.947655898879,1671628259.081,510,102406,52432
160884,13029.954105071445,1671628259.18,510,102386,52412
160884,13029.960554244011,1671628259.18,510,102386,52412
160885,13029.967003416577,1671628259.18,508,102413,52384
160885,13029.973452589144,1671628259.18,508,102413,52384
160886,13029.97990176171,1671628259.18,508,102305,52371
160886,13029.986350934276,1671628259.18,508,102305,52371
160887,13029.992800106842,1671628259.18,510,102354,52391
160887,13029.999249279408,1671628259.18,510,102354,52391
160888,13030.005698451974,1671628259.18,509,102436,52388
160888,13030.01214762454,1671628259.18,509,102436,52388
160889,13030.018596797107,1671628259.18,509,102359,52381
160889,13030.025045969673,1671628259.18,509,102359,52381
160890,13030.031495142239,1671628259.275,510,102325,52363
160890,13030.037944314805,1671628259.275,510,102325,52363
160891,13030.044393487371,1671628259.275,509,102367,52387
160891,13030.050842659937,1671628259.275,509,102367,52387
160892,13030.08775106265,1671628259.275,509,102417,52395
160892,13030.09522832965,1671628259.275,509,102417,52395
160893,13030.10270559665,1671628259.275,509,102377,52383
160893,13030.11018286365,1671628259.275,509,102377,52383
160894,13030.117660130649,1671628259.275,508,102423,52390
160894,13030.125137397648,1671628259.275,508,102423,52390
160895,13030.132614664648,1671628259.275,506,102434,52396
160895,13030.140091931647,1671628259.275,506,102434,52396
160896,13030.147569198647,1671628259.361,507,102523,52423
160896,13030.155046465647,1671628259.361,507,102523,52423
160897,13030.162523732646,1671628259.361,509,102471,52403
160897,13030.170000999646,1671628259.361,509,102471,52403
160898,13030.177478266645,1671628259.361,509,102409,52383
160898,13030.184955533645,1671628259.361,509,102409,52383
160899,13030.192432800644,1671628259.361,509,102385,52413
160899,13030.199910067644,1671628259.361,509,102385,52413
160900,13030.207387334643,1671628259.361,508,102565,52438
160900,13030.214864601643,1671628259.361,508,102565,52438
160901,13030.222341868643,1671628259.361,509,102410,52390
160901,13030.229819135642,1671628259.361,509,102410,52390
160902,13030.23646490422,1671628259.455,508,102443,52416
160902,13030.243263194778,1671628259.455,508,102443,52416
160903,13030.250061485336,1671628259.455,507,102519,52402
160903,13030.256859775895,1671628259.455,507,102519,52402
160904,13030.263658066453,1671628259.455,508,102553,52413
160904,13030.270456357011,1671628259.455,508,102553,52413
160905,13030.27725464757,1671628259.455,508,102545,52426
160905,13030.284052938128,1671628259.455,508,102545,52426
160906,13030.290851228687,1671628259.455,508,102581,52444
160906,13030.297649519245,1671628259.455,508,102581,52444
160907,13030.304447809804,1671628259.455,508,102481,52424
160907,13030.311246100362,1671628259.455,508,102481,52424
160908,13030.31804439092,1671628259.556,508,102568,52434
160908,13030.324842681479,1671628259.556,508,102568,52434
160909,13030.331640972037,1671628259.556,508,102634,52439
160909,13030.338439262596,1671628259.556,508,102634,52439
160910,13030.345237553154,1671628259.556,507,102620,52436
160910,13030.352035843713,1671628259.556,507,102620,52436
160911,13030.358834134271,1671628259.556,509,102578,52456
160911,13030.36563242483,1671628259.556,509,102578,52456
160912,13030.398417076443,1671628259.556,508,102608,52424
160912,13030.406264583822,1671628259.556,508,102608,52424
160913,13030.4141120912,1671628259.556,509,102673,52444
160913,13030.42195959858,1671628259.556,509,102673,52444
160914,13030.429807105958,1671628259.647,510,102503,52423
160914,13030.437654613337,1671628259.647,510,102503,52423
160915,13030.445502120716,1671628259.647,509,102474,52388
160915,13030.453349628095,1671628259.647,509,102474,52388
160916,13030.461197135473,1671628259.647,509,102439,52394
160916,13030.469044642852,1671628259.647,509,102439,52394
160917,13030.476892150231,1671628259.647,509,102394,52360
160917,13030.48473965761,1671628259.647,509,102394,52360
160918,13030.492587164988,1671628259.647,509,102334,52333
160918,13030.500434672367,1671628259.647,509,102334,52333
160919,13030.508282179746,1671628259.647,508,102288,52333
160919,13030.516129687125,1671628259.647,508,102288,52333
160920,13030.523977194503,1671628259.736,509,102304,52371
160920,13030.531824701882,1671628259.736,509,102304,52371
160921,13030.539672209261,1671628259.736,507,102296,52340
160921,13030.54751971664,1671628259.736,507,102296,52340
160922,13030.551955401386,1671628259.736,509,102278,52322
160922,13030.558993083734,1671628259.736,509,102278,52322
160923,13030.566030766082,1671628259.736,509,102356,52333
160923,13030.57306844843,1671628259.736,509,102356,52333
160924,13030.580106130777,1671628259.736,509,102273,52317
160924,13030.587143813125,1671628259.736,509,102273,52317
160925,13030.594181495473,1671628259.736,509,102283,52349
160925,13030.60121917782,1671628259.736,509,102283,52349
160926,13030.608256860169,1671628259.831,508,102312,52350
160926,13030.615294542516,1671628259.831,508,102312,52350
160927,13030.622332224864,1671628259.831,507,102302,52323
160927,13030.629369907212,1671628259.831,507,102302,52323
160928,13030.63640758956,1671628259.831,510,102287,52321
160928,13030.643445271908,1671628259.831,510,102287,52321
160929,13030.650482954255,1671628259.831,508,102322,52334
160929,13030.657520636603,1671628259.831,508,102322,52334
160930,13030.664558318951,1671628259.831,509,102290,52322
160930,13030.671596001299,1671628259.831,509,102290,52322
160931,13030.678633683647,1671628259.831,509,102340,52328
160931,13030.685671365994,1671628259.831,509,102340,52328
160932,13030.706515893073,1671628259.927,509,102318,52313
160932,13030.713885262256,1671628259.927,509,102318,52313
160933,13030.721254631439,1671628259.927,509,102262,52301
160933,13030.728624000621,1671628259.927,509,102262,52301
160934,13030.735993369804,1671628259.927,508,102244,52301
160934,13030.743362738987,1671628259.927,508,102244,52301
160935,13030.75073210817,1671628259.927,508,102181,52295
160935,13030.758101477353,1671628259.927,508,102181,52295
160936,13030.765470846536,1671628259.927,509,102269,52295
160936,13030.772840215719,1671628259.927,509,102269,52295
160937,13030.780209584902,1671628259.927,508,102268,52320
160937,13030.787578954085,1671628259.927,508,102268,52320
160938,13030.794948323268,1671628260.052,509,102288,52318
160938,13030.80231769245,1671628260.052,509,102288,52318
160939,13030.809687061634,1671628260.052,509,102333,52312
160939,13030.817056430817,1671628260.052,509,102333,52312
160940,13030.8244258,1671628260.052,509,102290,52309
160940,13030.831795169182,1671628260.052,509,102290,52309
160941,13030.839164538365,1671628260.052,507,102298,52320
160941,13030.846533907548,1671628260.052,507,102298,52320
160942,13030.888672582507,1671628260.052,508,102289,52318
160942,13030.898291258472,1671628260.052,508,102289,52318
160943,13030.907909934438,1671628260.052,508,102255,52306
160943,13030.917528610404,1671628260.052,508,102255,52306
160944,13030.92714728637,1671628260.113,507,102281,52291
160944,13030.936765962335,1671628260.113,507,102281,52291
160945,13030.9463846383,1671628260.113,509,102337,52306
160945,13030.956003314266,1671628260.113,509,102337,52306
160946,13030.965621990232,1671628260.113,510,102293,52307
160946,13030.975240666197,1671628260.113,510,102293,52307
160947,13030.984859342163,1671628260.113,508,102398,52304
160947,13030.994478018129,1671628260.113,508,102398,52304
160948,13031.004096694094,1671628260.113,509,102371,52334
160948,13031.01371537006,1671628260.113,509,102371,52334
160949,13031.023334046025,1671628260.113,509,102375,52314
160949,13031.032952721991,1671628260.113,509,102375,52314
160950,13031.042571397957,1671628260.205,509,102351,52321
160950,13031.052190073922,1671628260.205,509,102351,52321
160951,13031.061808749888,1671628260.205,508,102418,52337
160951,13031.071427425853,1671628260.205,508,102418,52337
160952,13031.018117682821,1671628260.205,509,102399,52324
160952,13031.024607399308,1671628260.205,509,102399,52324
160953,13031.031097115794,1671628260.205,508,102469,52351
160953,13031.03758683228,1671628260.205,508,102469,52351
160954,13031.044076548767,1671628260.205,508,102482,52328
160954,13031.050566265254,1671628260.205,508,102482,52328
160955,13031.05705598174,1671628260.205,509,102414,52326
160955,13031.063545698227,1671628260.205,509,102414,52326
160956,13031.070035414714,1671628260.3,509,102450,52338
160956,13031.0765251312,1671628260.3,509,102450,52338
160957,13031.083014847687,1671628260.3,508,102375,52322
160957,13031.089504564174,1671628260.3,508,102375,52322
160958,13031.09599428066,1671628260.3,509,102379,52312
160958,13031.102483997147,1671628260.3,509,102379,52312
160959,13031.108973713634,1671628260.3,508,102449,52322
160959,13031.11546343012,1671628260.3,508,102449,52322
160960,13031.121953146607,1671628260.3,508,102521,52347
160960,13031.128442863093,1671628260.3,508,102521,52347
160961,13031.13493257958,1671628260.3,509,102453,52326
160961,13031.141422296067,1671628260.3,509,102453,52326
160962,13031.176180727283,1671628260.397,508,102499,52337
160962,13031.183608290887,1671628260.397,508,102499,52337
160963,13031.19103585449,1671628260.397,507,102394,52306
160963,13031.198463418094,1671628260.397,507,102394,52306
160964,13031.205890981697,1671628260.397,508,102380,52283
160964,13031.2133185453,1671628260.397,508,102380,52283
160965,13031.220746108904,1671628260.397,507,102308,52300
160965,13031.228173672507,1671628260.397,507,102308,52300
160966,13031.23560123611,1671628260.397,507,102164,52264
160966,13031.243028799714,1671628260.397,507,102164,52264
160967,13031.250456363317,1671628260.397,507,102089,52223
160967,13031.25788392692,1671628260.397,507,102089,52223
160968,13031.265311490524,1671628260.488,508,102127,52241
160968,13031.272739054128,1671628260.488,508,102127,52241
160969,13031.280166617731,1671628260.488,508,102068,52204
160969,13031.287594181334,1671628260.488,508,102068,52204
160970,13031.295021744938,1671628260.488,509,102010,52205
160970,13031.302449308541,1671628260.488,509,102010,52205
160971,13031.309876872145,1671628260.488,509,101960,52199
160971,13031.317304435748,1671628260.488,509,101960,52199
160972,13031.332999989596,1671628260.488,508,102019,52198
160972,13031.340089974005,1671628260.488,508,102019,52198
160973,13031.347179958413,1671628260.488,507,102012,52185
160973,13031.354269942822,1671628260.488,507,102012,52185
160974,13031.36135992723,1671628260.575,509,101966,52163
160974,13031.368449911639,1671628260.575,509,101966,52163
160975,13031.375539896047,1671628260.575,507,101962,52169
160975,13031.382629880456,1671628260.575,507,101962,52169
160976,13031.389719864865,1671628260.575,507,101972,52171
160976,13031.396809849273,1671628260.575,507,101972,52171
160977,13031.403899833682,1671628260.575,508,101943,52160
160977,13031.41098981809,1671628260.575,508,101943,52160
160978,13031.418079802499,1671628260.575,507,101905,52153
160978,13031.425169786908,1671628260.575,507,101905,52153
160979,13031.432259771316,1671628260.575,509,101863,52169
160979,13031.439349755725,1671628260.575,509,101863,52169
160980,13031.446439740133,1671628260.676,509,101903,52145
160980,13031.453529724542,1671628260.676,509,101903,52145
160981,13031.46061970895,1671628260.676,509,101880,52130
160981,13031.46770969336,1671628260.676,509,101880,52130
160982,13031.48449385449,1671628260.676,507,101986,52163
160982,13031.492085791175,1671628260.676,507,101986,52163
160983,13031.49967772786,1671628260.676,507,101928,52135
160983,13031.507269664544,1671628260.676,507,101928,52135
160984,13031.514861601228,1671628260.676,508,101880,52109
160984,13031.522453537913,1671628260.676,508,101880,52109
160985,13031.530045474598,1671628260.676,507,101965,52140
160985,13031.537637411282,1671628260.676,507,101965,52140
160986,13031.545229347967,1671628260.766,507,101914,52133
160986,13031.552821284651,1671628260.766,507,101914,52133
160987,13031.560413221336,1671628260.766,507,101899,52119
160987,13031.56800515802,1671628260.766,507,101899,52119
160988,13031.575597094705,1671628260.766,508,101910,52133
160988,13031.58318903139,1671628260.766,508,101910,52133
160989,13031.590780968074,1671628260.766,507,101848,52122
160989,13031.598372904758,1671628260.766,507,101848,52122
160990,13031.605964841443,1671628260.766,507,101918,52136
160990,13031.613556778128,1671628260.766,507,101918,52136
160991,13031.621148714812,1671628260.766,506,101950,52118
160991,13031.628740651497,1671628260.766,506,101950,52118
160992,13031.64157812687,1671628260.861,506,101901,52141
160992,13031.648618566338,1671628260.861,506,101901,52141
160993,13031.655659005806,1671628260.861,506,101992,52130
160993,13031.662699445274,1671628260.861,506,101992,52130
160994,13031.669739884743,1671628260.861,507,101999,52124
160994,13031.676780324211,1671628260.861,507,101999,52124
160995,13031.68382076368,1671628260.861,508,101907,52123
160995,13031.690861203148,1671628260.861,508,101907,52123
160996,13031.697901642616,1671628260.861,509,101919,52117
160996,13031.704942082084,1671628260.861,509,101919,52117
160997,13031.711982521552,1671628260.861,508,101948,52132
160997,13031.71902296102,1671628260.861,508,101948,52132
160998,13031.726063400489,1671628260.957,506,102022,52131
160998,13031.733103839957,1671628260.957,506,102022,52131
160999,13031.740144279425,1671628260.957,508,101973,52144
160999,13031.747184718894,1671628260.957,508,101973,52144
161000,13031.754225158362,1671628260.957,508,101960,52122
161000,13031.76126559783,1671628260.957,508,101960,52122
161001,13031.768306037298,1671628260.957,509,102052,52136
161001,13031.775346476767,1671628260.957,509,102052,52136
161002,13031.800564402924,1671628260.957,508,102036,52160
161002,13031.808032064315,1671628260.957,508,102036,52160
161003,13031.815499725706,1671628260.957,510,102046,52150
161003,13031.822967387097,1671628260.957,510,102046,52150
161004,13031.830435048489,1671628261.05,507,102070,52157
161004,13031.83790270988,1671628261.05,507,102070,52157
161005,13031.845370371271,1671628261.05,508,102058,52153
161005,13031.852838032662,1671628261.05,508,102058,52153
161006,13031.860305694054,1671628261.05,506,102058,52131
161006,13031.867773355445,1671628261.05,506,102058,52131
161007,13031.875241016836,1671628261.05,507,102097,52176
161007,13031.882708678228,1671628261.05,507,102097,52176
161008,13031.890176339619,1671628261.05,508,102056,52139
161008,13031.89764400101,1671628261.05,508,102056,52139
161009,13031.905111662401,1671628261.05,508,102124,52172
161009,13031.912579323793,1671628261.05,508,102124,52172
161010,13031.920046985184,1671628261.146,509,102022,52158
161010,13031.927514646575,1671628261.146,509,102022,52158
161011,13031.934982307966,1671628261.146,508,102118,52160
161011,13031.942449969358,1671628261.146,508,102118,52160
161012,13031.958116740336,1671628261.146,509,102101,52175
161012,13031.965548960412,1671628261.146,509,102101,52175
161013,13031.972981180488,1671628261.146,509,102149,52161
161013,13031.980413400564,1671628261.146,509,102149,52161
161014,13031.98784562064,1671628261.146,507,102120,52165
161014,13031.995277840717,1671628261.146,507,102120,52165
161015,13032.002710060793,1671628261.146,508,102188,52201
161015,13032.01014228087,1671628261.146,508,102188,52201
161016,13032.017574500946,1671628261.244,507,102192,52189
161016,13032.025006721022,1671628261.244,507,102192,52189
161017,13032.032438941098,1671628261.244,509,102049,52142
161017,13032.039871161174,1671628261.244,509,102049,52142
161018,13032.04730338125,1671628261.244,508,101962,52126
161018,13032.054735601327,1671628261.244,508,101962,52126
161019,13032.062167821403,1671628261.244,508,101936,52093
161019,13032.06960004148,1671628261.244,508,101936,52093
161020,13032.077032261555,1671628261.244,508,101832,52083
161020,13032.084464481632,1671628261.244,508,101832,52083
161021,13032.091896701708,1671628261.244,509,101800,52087
161021,13032.099328921784,1671628261.244,509,101800,52087
161022,13032.119584867825,1671628261.33,507,101791,52073
161022,13032.12719537529,1671628261.33,507,101791,52073
161023,13032.134805882753,1671628261.33,508,101662,52022
161023,13032.142416390217,1671628261.33,508,101662,52022
161024,13032.150026897682,1671628261.33,508,101683,52015
161024,13032.157637405146,1671628261.33,508,101683,52015
161025,13032.16524791261,1671628261.33,508,101588,52025
161025,13032.172858420074,1671628261.33,508,101588,52025
161026,13032.180468927538,1671628261.33,509,101603,52015
161026,13032.188079435002,1671628261.33,509,101603,52015
161027,13032.195689942466,1671628261.33,507,101682,52013
161027,13032.20330044993,1671628261.33,507,101682,52013
161028,13032.210910957394,1671628261.43,509,101600,51992
161028,13032.218521464858,1671628261.43,509,101600,51992
161029,13032.226131972322,1671628261.43,508,101645,52016
161029,13032.233742479786,1671628261.43,508,101645,52016
161030,13032.24135298725,1671628261.43,510,101491,51946
161030,13032.248963494714,1671628261.43,510,101491,51946
161031,13032.256574002178,1671628261.43,508,101574,51980
161031,13032.264184509642,1671628261.43,508,101574,51980
161032,13032.272798820375,1671628261.43,508,101464,51961
161032,13032.28057491075,1671628261.43,508,101464,51961
161033,13032.288351001125,1671628261.43,508,101630,51970
161033,13032.2961270915,1671628261.43,508,101630,51970
161034,13032.303903181875,1671628261.517,508,101607,51972
161034,13032.31167927225,1671628261.517,508,101607,51972
161035,13032.319455362625,1671628261.517,508,101453,51943
161035,13032.327231453,1671628261.517,508,101453,51943
161036,13032.335007543375,1671628261.517,508,101523,51948
161036,13032.34278363375,1671628261.517,508,101523,51948
161037,13032.350559724126,1671628261.517,506,101575,51979
161037,13032.3583358145,1671628261.517,506,101575,51979
161038,13032.366111904876,1671628261.517,508,101530,51940
161038,13032.37388799525,1671628261.517,508,101530,51940
161039,13032.381664085626,1671628261.517,508,101470,51925
161039,13032.389440176,1671628261.517,508,101470,51925
161040,13032.397216266376,1671628261.61,509,101513,51925
161040,13032.40499235675,1671628261.61,509,101513,51925
161041,13032.412768447126,1671628261.61,507,101555,51954
161041,13032.420544537501,1671628261.61,507,101555,51954
161042,13032.423545562227,1671628261.61,507,101480,51927
161042,13032.430681101374,1671628261.61,507,101480,51927
161043,13032.43781664052,1671628261.61,508,101485,51936
161043,13032.444952179667,1671628261.61,508,101485,51936
161044,13032.452087718813,1671628261.61,508,101460,51907
161044,13032.45922325796,1671628261.61,508,101460,51907
161045,13032.466358797106,1671628261.61,507,101487,51927
161045,13032.473494336253,1671628261.61,507,101487,51927
161046,13032.4806298754,1671628261.705,509,101423,51931
161046,13032.487765414546,1671628261.705,509,101423,51931
161047,13032.494900953692,1671628261.705,508,101466,51921
161047,13032.502036492839,1671628261.705,508,101466,51921
161048,13032.509172031985,1671628261.705,509,101547,51932
161048,13032.516307571132,1671628261.705,509,101547,51932
161049,13032.523443110278,1671628261.705,509,101444,51920
161049,13032.530578649425,1671628261.705,509,101444,51920
161050,13032.537714188571,1671628261.705,510,101537,51967
161050,13032.544849727718,1671628261.705,510,101537,51967
161051,13032.551985266864,1671628261.705,508,101510,51938
161051,13032.55912080601,1671628261.705,508,101510,51938
161052,13032.58103219276,1671628261.803,508,101522,51972
161052,13032.588451282209,1671628261.803,508,101522,51972
161053,13032.595870371657,1671628261.803,508,101532,51935
161053,13032.603289461105,1671628261.803,508,101532,51935
161054,13032.610708550554,1671628261.803,508,101485,51971
161054,13032.618127640002,1671628261.803,508,101485,51971
161055,13032.62554672945,1671628261.803,506,101568,51966
161055,13032.632965818899,1671628261.803,506,101568,51966
161056,13032.640384908347,1671628261.803,507,101547,51955
161056,13032.647803997796,1671628261.803,507,101547,51955
161057,13032.655223087244,1671628261.803,507,101560,51963
161057,13032.662642176692,1671628261.803,507,101560,51963
161058,13032.67006126614,1671628261.898,508,101477,51953
161058,13032.677480355589,1671628261.898,508,101477,51953
161059,13032.684899445037,1671628261.898,509,101596,51953
161059,13032.692318534486,1671628261.898,509,101596,51953
161060,13032.699737623934,1671628261.898,506,101617,51977
161060,13032.707156713383,1671628261.898,506,101617,51977
161061,13032.714575802831,1671628261.898,507,101551,51968
161061,13032.72199489228,1671628261.898,507,101551,51968
161062,13032.74206343058,1671628261.898,508,101599,51978
161062,13032.74949841623,1671628261.898,508,101599,51978
161063,13032.756933401879,1671628261.898,508,101638,52003
161063,13032.764368387529,1671628261.898,508,101638,52003
161064,13032.771803373178,1671628261.991,506,101715,51991
161064,13032.779238358828,1671628261.991,506,101715,51991
161065,13032.786673344477,1671628261.991,507,101706,52001
161065,13032.794108330127,1671628261.991,507,101706,52001
161066,13032.801543315776,1671628261.991,509,101646,51986
161066,13032.808978301426,1671628261.991,509,101646,51986
161067,13032.816413287075,1671628261.991,508,101759,52022
161067,13032.823848272725,1671628261.991,508,101759,52022
161068,13032.831283258374,1671628261.991,507,101685,52008
161068,13032.838718244024,1671628261.991,507,101685,52008
161069,13032.846153229673,1671628261.991,509,101734,52043
161069,13032.853588215323,1671628261.991,509,101734,52043
161070,13032.861023200972,1671628262.08,509,101700,52027
161070,13032.868458186622,1671628262.08,509,101700,52027
161071,13032.875893172271,1671628262.08,507,101703,52014
161071,13032.883328157921,1671628262.08,507,101703,52014
161072,13032.895967730745,1671628262.08,508,101719,52053
161072,13032.903018399025,1671628262.08,508,101719,52053
161073,13032.910069067306,1671628262.08,508,101757,52059
161073,13032.917119735586,1671628262.08,508,101757,52059
161074,13032.924170403867,1671628262.08,508,101840,52070
161074,13032.931221072147,1671628262.08,508,101840,52070
161075,13032.938271740428,1671628262.08,509,101826,52050
161075,13032.945322408708,1671628262.08,509,101826,52050
161076,13032.952373076989,1671628262.176,509,101896,52086
161076,13032.95942374527,1671628262.176,509,101896,52086
161077,13032.96647441355,1671628262.176,509,101857,52066
161077,13032.97352508183,1671628262.176,509,101857,52066
161078,13032.98057575011,1671628262.176,509,101929,52086
161078,13032.987626418391,1671628262.176,509,101929,52086
161079,13032.994677086672,1671628262.176,508,102001,52098
161079,13033.001727754952,1671628262.176,508,102001,52098
161080,13033.008778423233,1671628262.176,508,101883,52082
161080,13033.015829091513,1671628262.176,508,101883,52082
161081,13033.022879759794,1671628262.176,508,101958,52093
161081,13033.029930428074,1671628262.176,508,101958,52093
161082,13033.051712774573,1671628262.272,507,101924,52087
161082,13033.05919566359,1671628262.272,507,101924,52087
161083,13033.066678552608,1671628262.272,508,101889,52076
161083,13033.074161441626,1671628262.272,508,101889,52076
161084,13033.081644330643,1671628262.272,507,101768,52039
161084,13033.08912721966,1671628262.272,507,101768,52039
161085,13033.096610108678,1671628262.272,506,101736,52020
161085,13033.104092997695,1671628262.272,506,101736,52020
161086,13033.111575886713,1671628262.272,508,101619,51996
161086,13033.11905877573,1671628262.272,508,101619,51996
161087,13033.126541664747,1671628262.272,507,101565,51976
161087,13033.134024553765,1671628262.272,507,101565,51976
161088,13033.141507442782,1671628262.364,507,101498,51960
161088,13033.1489903318,1671628262.364,507,101498,51960
161089,13033.156473220817,1671628262.364,506,101572,51962
161089,13033.163956109835,1671628262.364,506,101572,51962
161090,13033.171438998852,1671628262.364,507,101529,51958
161090,13033.17892188787,1671628262.364,507,101529,51958
161091,13033.186404776887,1671628262.364,508,101469,51936
161091,13033.193887665904,1671628262.364,508,101469,51936
161092,13033.208951748986,1671628262.364,507,101400,51944
161092,13033.216135455727,1671628262.364,507,101400,51944
161093,13033.223319162467,1671628262.364,507,101428,51925
161093,13033.230502869208,1671628262.364,507,101428,51925
161094,13033.237686575949,1671628262.449,508,101341,51922
161094,13033.24487028269,1671628262.449,508,101341,51922
161095,13033.25205398943,1671628262.449,509,101366,51905
161095,13033.259237696171,1671628262.449,509,101366,51905
161096,13033.266421402912,1671628262.449,506,101442,51932
161096,13033.273605109653,1671628262.449,506,101442,51932
161097,13033.280788816393,1671628262.449,507,101401,51916
161097,13033.287972523134,1671628262.449,507,101401,51916
161098,13033.295156229875,1671628262.449,507,101375,51929
161098,13033.302339936616,1671628262.449,507,101375,51929
161099,13033.309523643356,1671628262.449,508,101399,51928
161099,13033.316707350097,1671628262.449,508,101399,51928
161100,13033.323891056838,1671628262.556,508,101385,51920
161100,13033.331074763579,1671628262.556,508,101385,51920
161101,13033.33825847032,1671628262.556,508,101438,51926
161101,13033.34544217706,1671628262.556,508,101438,51926
161102,13033.360839724008,1671628262.556,508,101381,51923
161102,13033.36865420868,1671628262.556,508,101381,51923
161103,13033.376468693352,1671628262.556,508,101437,51941
161103,13033.384283178024,1671628262.556,508,101437,51941
161104,13033.392097662696,1671628262.556,509,101367,51909
161104,13033.399912147368,1671628262.556,509,101367,51909
161105,13033.40772663204,1671628262.556,508,101363,51909
161105,13033.415541116712,1671628262.556,508,101363,51909
161106,13033.423355601384,1671628262.658,507,101420,51936
161106,13033.431170086056,1671628262.658,507,101420,51936
161107,13033.438984570728,1671628262.658,509,101436,51926
161107,13033.4467990554,1671628262.658,509,101436,51926
161108,13033.454613540072,1671628262.658,509,101406,51920
161108,13033.462428024744,1671628262.658,509,101406,51920
161109,13033.470242509416,1671628262.658,509,101290,51924
161109,13033.478056994089,1671628262.658,509,101290,51924
161110,13033.48587147876,1671628262.658,508,101372,51939
161110,13033.493685963433,1671628262.658,508,101372,51939
161111,13033.501500448105,1671628262.658,508,101375,51934
161111,13033.509314932777,1671628262.658,508,101375,51934
161112,13033.534270203141,1671628262.737,507,101438,51961
161112,13033.542253717851,1671628262.737,507,101438,51961
161113,13033.55023723256,1671628262.737,508,101400,51941
161113,13033.55822074727,1671628262.737,508,101400,51941
161114,13033.56620426198,1671628262.737,508,101429,51968
161114,13033.57418777669,1671628262.737,508,101429,51968
161115,13033.5821712914,1671628262.737,508,101422,51954
161115,13033.59015480611,1671628262.737,508,101422,51954
161116,13033.59813832082,1671628262.737,509,101396,51949
161116,13033.60612183553,1671628262.737,509,101396,51949
161117,13033.61410535024,1671628262.737,508,101494,51957
161117,13033.62208886495,1671628262.737,508,101494,51957
161118,13033.63007237966,1671628262.832,507,101442,51949
161118,13033.63805589437,1671628262.832,507,101442,51949
161119,13033.64603940908,1671628262.832,507,101535,52008
161119,13033.654022923789,1671628262.832,507,101535,52008
161120,13033.662006438499,1671628262.832,508,101461,51960
161120,13033.669989953209,1671628262.832,508,101461,51960
161121,13033.677973467918,1671628262.832,509,101507,51976
161121,13033.685956982628,1671628262.832,509,101507,51976
161122,13033.676375309778,1671628262.832,509,101469,51977
161122,13033.683751174933,1671628262.832,509,101469,51977
161123,13033.691127040087,1671628262.832,510,101541,52004
161123,13033.698502905241,1671628262.832,510,101541,52004
161124,13033.705878770395,1671628262.928,508,101461,52006
161124,13033.71325463555,1671628262.928,508,101461,52006
161125,13033.720630500704,1671628262.928,507,101580,52017
161125,13033.728006365858,1671628262.928,507,101580,52017
161126,13033.735382231012,1671628262.928,508,101574,52028
161126,13033.742758096167,1671628262.928,508,101574,52028
161127,13033.75013396132,1671628262.928,508,101513,52005
161127,13033.757509826475,1671628262.928,508,101513,52005
161128,13033.76488569163,1671628262.928,510,101558,52032
161128,13033.772261556784,1671628262.928,510,101558,52032
161129,13033.779637421938,1671628262.928,508,101608,52043
161129,13033.787013287092,1671628262.928,508,101608,52043
161130,13033.794389152246,1671628263.019,510,101599,52055
161130,13033.8017650174,1671628263.019,510,101599,52055
161131,13033.809140882555,1671628263.019,511,101605,52052
161131,13033.81651674771,1671628263.019,511,101605,52052
161132,13033.833767221515,1671628263.019,508,101566,52075
161132,13033.841016871153,1671628263.019,508,101566,52075
161133,13033.84826652079,1671628263.019,508,101689,52083
161133,13033.855516170428,1671628263.019,508,101689,52083
161134,13033.862765820066,1671628263.019,510,101693,52071
161134,13033.870015469704,1671628263.019,510,101693,52071
161135,13033.877265119341,1671628263.019,509,101617,52074
161135,13033.884514768979,1671628263.019,509,101617,52074
161136,13033.891764418617,1671628263.113,506,101642,52084
161136,13033.899014068254,1671628263.113,506,101642,52084
161137,13033.906263717892,1671628263.113,508,101736,52115
161137,13033.91351336753,1671628263.113,508,101736,52115
161138,13033.920763017168,1671628263.113,509,101692,52102
161138,13033.928012666805,1671628263.113,509,101692,52102
161139,13033.935262316443,1671628263.113,510,101639,52120
161139,13033.942511966081,1671628263.113,510,101639,52120
161140,13033.949761615719,1671628263.113,508,101814,52135
161140,13033.957011265356,1671628263.113,508,101814,52135
161141,13033.964260914994,1671628263.113,509,101722,52121
161141,13033.971510564632,1671628263.113,509,101722,52121
161142,13033.98828218114,1671628263.205,511,101779,52131
161142,13033.99556863392,1671628263.205,511,101779,52131
161143,13034.0028550867,1671628263.205,508,101797,52152
161143,13034.010141539478,1671628263.205,508,101797,52152
161144,13034.017427992258,1671628263.205,509,101792,52153
161144,13034.024714445037,1671628263.205,509,101792,52153
161145,13034.032000897816,1671628263.205,509,101788,52156
161145,13034.039287350595,1671628263.205,509,101788,52156
161146,13034.046573803374,1671628263.205,509,101899,52203
161146,13034.053860256154,1671628263.205,509,101899,52203
161147,13034.061146708933,1671628263.205,511,101826,52174
161147,13034.068433161712,1671628263.205,511,101826,52174
161148,13034.075719614491,1671628263.296,509,101885,52178
161148,13034.08300606727,1671628263.296,509,101885,52178
161149,13034.09029252005,1671628263.296,510,101844,52202
161149,13034.097578972829,1671628263.296,510,101844,52202
161150,13034.104865425608,1671628263.296,508,101919,52215
161150,13034.112151878388,1671628263.296,508,101919,52215
161151,13034.119438331167,1671628263.296,507,101938,52238
161151,13034.126724783946,1671628263.296,507,101938,52238
161152,13034.14111847044,1671628263.296,508,101920,52220
161152,13034.148244183554,1671628263.296,508,101920,52220
161153,13034.155369896669,1671628263.296,509,101851,52223
161153,13034.162495609784,1671628263.296,509,101851,52223
161154,13034.169621322899,1671628263.398,510,101928,52236
161154,13034.176747036014,1671628263.398,510,101928,52236
161155,13034.183872749129,1671628263.398,509,101883,52222
161155,13034.190998462243,1671628263.398,509,101883,52222
161156,13034.198124175358,1671628263.398,507,101880,52220
161156,13034.205249888473,1671628263.398,507,101880,52220
161157,13034.212375601588,1671628263.398,508,101682,52163
161157,13034.219501314703,1671628263.398,508,101682,52163
161158,13034.226627027818,1671628263.398,508,101670,52163
161158,13034.233752740933,1671628263.398,508,101670,52163
161159,13034.240878454048,1671628263.398,508,101624,52145
161159,13034.248004167162,1671628263.398,508,101624,52145
161160,13034.255129880277,1671628263.49,507,101473,52128
161160,13034.262255593392,1671628263.49,507,101473,52128
161161,13034.269381306507,1671628263.49,510,101510,52126
161161,13034.276507019622,1671628263.49,510,101510,52126
161162,13034.304591747761,1671628263.49,509,101433,52120
161162,13034.312021539996,1671628263.49,509,101433,52120
161163,13034.31945133223,1671628263.49,508,101580,52143
161163,13034.326881124465,1671628263.49,508,101580,52143
161164,13034.3343109167,1671628263.49,509,101475,52115
161164,13034.341740708935,1671628263.49,509,101475,52115
161165,13034.34917050117,1671628263.49,507,101520,52149
161165,13034.356600293404,1671628263.49,507,101520,52149
161166,13034.364030085639,1671628263.58,507,101507,52122
161166,13034.371459877873,1671628263.58,507,101507,52122
161167,13034.378889670108,1671628263.58,506,101411,52107
161167,13034.386319462343,1671628263.58,506,101411,52107
161168,13034.393749254577,1671628263.58,509,101416,52087
161168,13034.401179046812,1671628263.58,509,101416,52087
161169,13034.408608839047,1671628263.58,507,101478,52111
161169,13034.416038631281,1671628263.58,507,101478,52111
161170,13034.423468423516,1671628263.58,507,101380,52089
161170,13034.43089821575,1671628263.58,507,101380,52089
161171,13034.438328007986,1671628263.58,508,101450,52089
161171,13034.44575780022,1671628263.58,508,101450,52089
161172,13034.455282880319,1671628263.676,507,101454,52099
161172,13034.4623020213,1671628263.676,507,101454,52099
161173,13034.469321162282,1671628263.676,509,101377,52098
161173,13034.476340303263,1671628263.676,509,101377,52098
161174,13034.483359444244,1671628263.676,508,101537,52099
161174,13034.490378585226,1671628263.676,508,101537,52099
161175,13034.497397726207,1671628263.676,507,101456,52091
161175,13034.504416867188,1671628263.676,507,101456,52091
161176,13034.51143600817,1671628263.676,509,101360,52083
161176,13034.518455149151,1671628263.676,509,101360,52083
161177,13034.525474290132,1671628263.676,506,101404,52112
161177,13034.532493431114,1671628263.676,506,101404,52112
161178,13034.539512572095,1671628263.77,509,101337,52070
161178,13034.546531713077,1671628263.77,509,101337,52070
161179,13034.553550854058,1671628263.77,509,101403,52101
161179,13034.56056999504,1671628263.77,509,101403,52101
161180,13034.56758913602,1671628263.77,508,101434,52109
161180,13034.574608277002,1671628263.77,508,101434,52109
161181,13034.581627417983,1671628263.77,510,101376,52087
161181,13034.588646558965,1671628263.77,510,101376,52087
161182,13034.614185027678,1671628263.77,510,101391,52093
161182,13034.621524112732,1671628263.77,510,101391,52093
161183,13034.628863197786,1671628263.77,508,101427,52122
161183,13034.63620228284,1671628263.77,508,101427,52122
161184,13034.643541367894,1671628263.865,508,101416,52105
161184,13034.650880452948,1671628263.865,508,101416,52105
161185,13034.658219538002,1671628263.865,508,101520,52134
161185,13034.665558623055,1671628263.865,508,101520,52134
161186,13034.67289770811,1671628263.865,508,101404,52108
161186,13034.680236793163,1671628263.865,508,101404,52108
161187,13034.687575878217,1671628263.865,509,101517,52134
161187,13034.694914963271,1671628263.865,509,101517,52134
161188,13034.702254048325,1671628263.865,508,101484,52131
161188,13034.709593133379,1671628263.865,508,101484,52131
161189,13034.716932218433,1671628263.865,509,101530,52148
161189,13034.724271303487,1671628263.865,509,101530,52148
161190,13034.73161038854,1671628263.957,509,101554,52149
161190,13034.738949473594,1671628263.957,509,101554,52149
161191,13034.746288558648,1671628263.957,507,101451,52132
161191,13034.753627643702,1671628263.957,507,101451,52132
161192,13034.771313890678,1671628263.957,507,101578,52175
161192,13034.778546944719,1671628263.957,507,101578,52175
161193,13034.78577999876,1671628263.957,506,101626,52189
161193,13034.7930130528,1671628263.957,506,101626,52189
161194,13034.80024610684,1671628263.957,508,101593,52182
161194,13034.807479160881,1671628263.957,508,101593,52182
161195,13034.814712214922,1671628263.957,508,101548,52186
161195,13034.821945268963,1671628263.957,508,101548,52186
161196,13034.829178323003,1671628264.054,507,101629,52207
161196,13034.836411377044,1671628264.054,507,101629,52207
161197,13034.843644431085,1671628264.054,508,101593,52174
161197,13034.850877485125,1671628264.054,508,101593,52174
161198,13034.858110539166,1671628264.054,508,101584,52207
161198,13034.865343593206,1671628264.054,508,101584,52207
161199,13034.872576647247,1671628264.054,508,101546,52196
161199,13034.879809701288,1671628264.054,508,101546,52196
161200,13034.887042755328,1671628264.054,507,101662,52219
161200,13034.894275809369,1671628264.054,507,101662,52219
161201,13034.90150886341,1671628264.054,508,101654,52229
161201,13034.90874191745,1671628264.054,508,101654,52229
161202,13034.930166070126,1671628264.148,507,101667,52226
161202,13034.93777920007,1671628264.148,507,101667,52226
161203,13034.945392330015,1671628264.148,508,101675,52206
161203,13034.95300545996,1671628264.148,508,101675,52206
161204,13034.960618589905,1671628264.148,507,101647,52216
161204,13034.96823171985,1671628264.148,507,101647,52216
161205,13034.975844849794,1671628264.148,508,101651,52233
161205,13034.983457979739,1671628264.148,508,101651,52233
161206,13034.991071109684,1671628264.148,508,101666,52240
161206,13034.998684239628,1671628264.148,508,101666,52240
161207,13035.006297369573,1671628264.148,507,101766,52238
161207,13035.013910499518,1671628264.148,507,101766,52238
161208,13035.021523629463,1671628264.242,507,101691,52250
161208,13035.029136759407,1671628264.242,507,101691,52250
161209,13035.036749889352,1671628264.242,507,101736,52260
161209,13035.044363019297,1671628264.242,507,101736,52260
161210,13035.051976149241,1671628264.242,508,101783,52261
161210,13035.059589279186,1671628264.242,508,101783,52261
161211,13035.067202409131,1671628264.242,509,101699,52276
161211,13035.074815539076,1671628264.242,509,101699,52276
161212,13035.086080873227,1671628264.242,508,101784,52295
161212,13035.093378307312,1671628264.242,508,101784,52295
161213,13035.100675741398,1671628264.242,507,101746,52289
161213,13035.107973175483,1671628264.242,507,101746,52289
161214,13035.115270609569,1671628264.322,508,101755,52291
161214,13035.122568043655,1671628264.322,508,101755,52291
161215,13035.12986547774,1671628264.322,509,101835,52291
161215,13035.137162911826,1671628264.322,509,101835,52291
161216,13035.144460345911,1671628264.322,508,101877,52318
161216,13035.151757779997,1671628264.322,508,101877,52318
161217,13035.159055214082,1671628264.322,508,101801,52324
161217,13035.166352648168,1671628264.322,508,101801,52324
161218,13035.173650082254,1671628264.322,510,101876,52308
161218,13035.180947516339,1671628264.322,510,101876,52308
161219,13035.188244950425,1671628264.322,508,101917,52357
161219,13035.19554238451,1671628264.322,508,101917,52357
161220,13035.202839818596,1671628264.426,508,101950,52367
161220,13035.210137252681,1671628264.426,508,101950,52367
161221,13035.217434686767,1671628264.426,509,101945,52342
161221,13035.224732120852,1671628264.426,509,101945,52342
161222,13035.232794987336,1671628264.426,507,102077,52398
161222,13035.24038879198,1671628264.426,507,102077,52398
161223,13035.247982596626,1671628264.426,508,102024,52354
161223,13035.25557640127,1671628264.426,508,102024,52354
161224,13035.263170205915,1671628264.426,509,101937,52357
161224,13035.27076401056,1671628264.426,509,101937,52357
161225,13035.278357815205,1671628264.426,508,101901,52353
161225,13035.28595161985,1671628264.426,508,101901,52353
161226,13035.293545424494,1671628264.516,507,101964,52346
161226,13035.30113922914,1671628264.516,507,101964,52346
161227,13035.308733033784,1671628264.516,508,101851,52322
161227,13035.316326838429,1671628264.516,508,101851,52322
161228,13035.323920643074,1671628264.516,508,101714,52284
161228,13035.331514447718,1671628264.516,508,101714,52284
161229,13035.339108252363,1671628264.516,508,101669,52294
161229,13035.346702057008,1671628264.516,508,101669,52294
161230,13035.354295861653,1671628264.516,508,101587,52272
161230,13035.361889666297,1671628264.516,508,101587,52272
161231,13035.369483470942,1671628264.516,507,101585,52258
161231,13035.377077275587,1671628264.516,507,101585,52258
161232,13035.391680502755,1671628264.61,508,101559,52247
161232,13035.398715833458,1671628264.61,508,101559,52247
161233,13035.405751164162,1671628264.61,508,101588,52241
161233,13035.412786494866,1671628264.61,508,101588,52241
161234,13035.41982182557,1671628264.61,508,101605,52264
161234,13035.426857156273,1671628264.61,508,101605,52264
161235,13035.433892486977,1671628264.61,508,101575,52260
161235,13035.44092781768,1671628264.61,508,101575,52260
161236,13035.447963148385,1671628264.61,508,101653,52247
161236,13035.454998479088,1671628264.61,508,101653,52247
161237,13035.462033809792,1671628264.61,509,101511,52235
161237,13035.469069140496,1671628264.61,509,101511,52235
161238,13035.4761044712,1671628264.705,508,101496,52248
161238,13035.483139801903,1671628264.705,508,101496,52248
161239,13035.490175132607,1671628264.705,508,101612,52267
161239,13035.49721046331,1671628264.705,508,101612,52267
161240,13035.504245794014,1671628264.705,509,101614,52254
161240,13035.511281124718,1671628264.705,509,101614,52254
161241,13035.518316455422,1671628264.705,507,101525,52268
161241,13035.525351786126,1671628264.705,507,101525,52268
161242,13035.549304145732,1671628264.705,506,101693,52281
161242,13035.55677231137,1671628264.705,506,101693,52281
161243,13035.56424047701,1671628264.705,508,101572,52245
161243,13035.571708642648,1671628264.705,508,101572,52245
161244,13035.579176808287,1671628264.804,508,101644,52273
161244,13035.586644973926,1671628264.804,508,101644,52273
161245,13035.594113139565,1671628264.804,507,101602,52258
161245,13035.601581305204,1671628264.804,507,101602,52258
161246,13035.609049470842,1671628264.804,509,101539,52231
161246,13035.616517636481,1671628264.804,509,101539,52231
161247,13035.62398580212,1671628264.804,509,101595,52253
161247,13035.631453967759,1671628264.804,509,101595,52253
161248,13035.638922133398,1671628264.804,506,101586,52245
161248,13035.646390299036,1671628264.804,506,101586,52245
161249,13035.653858464675,1671628264.804,508,101631,52246
161249,13035.661326630314,1671628264.804,508,101631,52246
161250,13035.668794795953,1671628264.895,508,101561,52262
161250,13035.676262961591,1671628264.895,508,101561,52262
161251,13035.68373112723,1671628264.895,508,101556,52242
161251,13035.691199292869,1671628264.895,508,101556,52242
161252,13035.710414661984,1671628264.895,508,101601,52247
161252,13035.71769162771,1671628264.895,508,101601,52247
161253,13035.724968593435,1671628264.895,509,101603,52257
161253,13035.73224555916,1671628264.895,509,101603,52257
161254,13035.739522524886,1671628264.895,508,101643,52262
161254,13035.746799490611,1671628264.895,508,101643,52262
161255,13035.754076456336,1671628264.895,507,101610,52252
161255,13035.761353422062,1671628264.895,507,101610,52252
161256,13035.768630387787,1671628264.988,507,101602,52265
161256,13035.775907353513,1671628264.988,507,101602,52265
161257,13035.783184319238,1671628264.988,507,101650,52272
161257,13035.790461284963,1671628264.988,507,101650,52272
161258,13035.797738250689,1671628264.988,508,101588,52274
161258,13035.805015216414,1671628264.988,508,101588,52274
161259,13035.81229218214,1671628264.988,508,101754,52311
161259,13035.819569147865,1671628264.988,508,101754,52311
161260,13035.82684611359,1671628264.988,508,101740,52297
161260,13035.834123079316,1671628264.988,508,101740,52297
161261,13035.841400045041,1671628264.988,509,101744,52304
161261,13035.848677010767,1671628264.988,509,101744,52304
161262,13035.863887405965,1671628265.084,508,101714,52320
161262,13035.871163819409,1671628265.084,508,101714,52320
161263,13035.878440232853,1671628265.084,510,101666,52284
161263,13035.885716646297,1671628265.084,510,101666,52284
161264,13035.89299305974,1671628265.084,508,101724,52308
161264,13035.900269473184,1671628265.084,508,101724,52308
161265,13035.907545886628,1671628265.084,507,101723,52319
161265,13035.914822300072,1671628265.084,507,101723,52319
161266,13035.922098713516,1671628265.084,508,101732,52311
161266,13035.92937512696,1671628265.084,508,101732,52311
161267,13035.936651540404,1671628265.084,509,101830,52310
161267,13035.943927953847,1671628265.084,509,101830,52310
161268,13035.951204367291,1671628265.176,509,101704,52302
161268,13035.958480780735,1671628265.176,509,101704,52302
161269,13035.965757194179,1671628265.176,509,101816,52311
161269,13035.973033607623,1671628265.176,509,101816,52311
161270,13035.980310021067,1671628265.176,508,101859,52328
161270,13035.98758643451,1671628265.176,508,101859,52328
161271,13035.994862847954,1671628265.176,507,101891,52374
161271,13036.002139261398,1671628265.176,507,101891,52374
161272,13036.02082331863,1671628265.176,509,101899,52334
161272,13036.028044365718,1671628265.176,509,101899,52334
161273,13036.035265412806,1671628265.176,507,101887,52329
161273,13036.042486459894,1671628265.176,507,101887,52329
161274,13036.049707506982,1671628265.271,509,101828,52347
161274,13036.05692855407,1671628265.271,509,101828,52347
161275,13036.064149601158,1671628265.271,509,101828,52361
161275,13036.071370648246,1671628265.271,509,101828,52361
161276,13036.078591695334,1671628265.271,509,101870,52351
161276,13036.085812742422,1671628265.271,509,101870,52351
161277,13036.09303378951,1671628265.271,509,101901,52363
161277,13036.100254836598,1671628265.271,509,101901,52363
161278,13036.107475883686,1671628265.271,509,101972,52355
161278,13036.114696930774,1671628265.271,509,101972,52355
161279,13036.121917977862,1671628265.271,508,101952,52380
161279,13036.12913902495,1671628265.271,508,101952,52380
161280,13036.136360072038,1671628265.36,509,101911,52359
161280,13036.143581119126,1671628265.36,509,101911,52359
161281,13036.150802166214,1671628265.36,507,101977,52386
161281,13036.158023213302,1671628265.36,507,101977,52386
161282,13036.176059574283,1671628265.36,508,101988,52395
161282,13036.183124235726,1671628265.36,508,101988,52395
161283,13036.190188897168,1671628265.36,508,102060,52410
161283,13036.19725355861,1671628265.36,508,102060,52410
161284,13036.204318220052,1671628265.36,509,102064,52398
161284,13036.211382881495,1671628265.36,509,102064,52398
161285,13036.218447542937,1671628265.36,509,102051,52408
161285,13036.225512204379,1671628265.36,509,102051,52408
161286,13036.232576865821,1671628265.454,509,102103,52401
161286,13036.239641527263,1671628265.454,509,102103,52401
161287,13036.246706188706,1671628265.454,507,102147,52411
161287,13036.253770850148,1671628265.454,507,102147,52411
161288,13036.26083551159,1671628265.454,508,102063,52409
161288,13036.267900173032,1671628265.454,508,102063,52409
161289,13036.274964834474,1671628265.454,508,102055,52394
161289,13036.282029495917,1671628265.454,508,102055,52394
161290,13036.289094157359,1671628265.454,509,101939,52395
161290,13036.2961588188,1671628265.454,509,101939,52395
161291,13036.303223480243,1671628265.454,508,102030,52405
161291,13036.310288141685,1671628265.454,508,102030,52405
161292,13036.330150003843,1671628265.546,508,101944,52353
161292,13036.337549796071,1671628265.546,508,101944,52353
161293,13036.3449495883,1671628265.546,507,101809,52334
161293,13036.352349380528,1671628265.546,507,101809,52334
161294,13036.359749172756,1671628265.546,509,101776,52327
161294,13036.367148964984,1671628265.546,509,101776,52327
161295,13036.374548757212,1671628265.546,508,101680,52340
161295,13036.38194854944,1671628265.546,508,101680,52340
161296,13036.389348341669,1671628265.546,508,101635,52290
161296,13036.396748133897,1671628265.546,508,101635,52290
161297,13036.404147926125,1671628265.546,509,101596,52291
161297,13036.411547718353,1671628265.546,509,101596,52291
161298,13036.418947510581,1671628265.647,508,101710,52310
161298,13036.42634730281,1671628265.647,508,101710,52310
161299,13036.433747095038,1671628265.647,508,101682,52278
161299,13036.441146887266,1671628265.647,508,101682,52278
161300,13036.448546679494,1671628265.647,507,101627,52268
161300,13036.455946471722,1671628265.647,507,101627,52268
161301,13036.46334626395,1671628265.647,508,101701,52295
161301,13036.470746056179,1671628265.647,508,101701,52295
161302,13036.490111996412,1671628265.647,509,101707,52295
161302,13036.497965648441,1671628265.647,509,101707,52295
161303,13036.50581930047,1671628265.647,509,101649,52279
161303,13036.513672952498,1671628265.647,509,101649,52279
161304,13036.521526604527,1671628265.737,506,101683,52292
161304,13036.529380256556,1671628265.737,506,101683,52292
161305,13036.537233908584,1671628265.737,509,101600,52273
161305,13036.545087560613,1671628265.737,509,101600,52273
161306,13036.552941212642,1671628265.737,510,101659,52269
161306,13036.56079486467,1671628265.737,510,101659,52269
161307,13036.568648516699,1671628265.737,508,101651,52277
161307,13036.576502168728,1671628265.737,508,101651,52277
161308,13036.584355820756,1671628265.737,508,101726,52289
161308,13036.592209472785,1671628265.737,508,101726,52289
161309,13036.600063124813,1671628265.737,509,101706,52267
161309,13036.607916776842,1671628265.737,509,101706,52267
161310,13036.61577042887,1671628265.825,509,101591,52262
161310,13036.6236240809,1671628265.825,509,101591,52262
161311,13036.631477732928,1671628265.825,508,101638,52272
161311,13036.639331384957,1671628265.825,508,101638,52272
161312,13036.6412593992,1671628265.825,508,101600,52269
161312,13036.648187766586,1671628265.825,508,101600,52269
161313,13036.655116133972,1671628265.825,510,101593,52260
161313,13036.662044501358,1671628265.825,510,101593,52260
161314,13036.668972868743,1671628265.825,509,101585,52244
161314,13036.675901236129,1671628265.825,509,101585,52244
161315,13036.682829603515,1671628265.825,509,101565,52258
161315,13036.6897579709,1671628265.825,509,101565,52258
161316,13036.696686338286,1671628265.929,509,101604,52267
161316,13036.703614705671,1671628265.929,509,101604,52267
161317,13036.710543073057,1671628265.929,508,101653,52253
161317,13036.717471440443,1671628265.929,508,101653,52253
161318,13036.724399807828,1671628265.929,508,101690,52262
161318,13036.731328175214,1671628265.929,508,101690,52262
161319,13036.7382565426,1671628265.929,508,101714,52291
161319,13036.745184909985,1671628265.929,508,101714,52291
161320,13036.75211327737,1671628265.929,508,101668,52268
161320,13036.759041644757,1671628265.929,508,101668,52268
161321,13036.765970012142,1671628265.929,508,101763,52279
161321,13036.772898379528,1671628265.929,508,101763,52279
161322,13036.805945265669,1671628266.02,509,101637,52269
161322,13036.814070935085,1671628266.02,509,101637,52269
161323,13036.8221966045,1671628266.02,509,101704,52273
161323,13036.830322273916,1671628266.02,509,101704,52273
161324,13036.838447943332,1671628266.02,509,101728,52275
161324,13036.846573612747,1671628266.02,509,101728,52275
161325,13036.854699282163,1671628266.02,508,101772,52314
161325,13036.862824951579,1671628266.02,508,101772,52314
161326,13036.870950620994,1671628266.02,509,101683,52293
161326,13036.87907629041,1671628266.02,509,101683,52293
161327,13036.887201959826,1671628266.02,508,101798,52286
161327,13036.895327629241,1671628266.02,508,101798,52286
161328,13036.903453298657,1671628266.11,508,101831,52303
161328,13036.911578968073,1671628266.11,508,101831,52303
161329,13036.919704637488,1671628266.11,507,101804,52307
161329,13036.927830306904,1671628266.11,507,101804,52307
161330,13036.93595597632,1671628266.11,508,101864,52324
161330,13036.944081645735,1671628266.11,508,101864,52324
161331,13036.952207315151,1671628266.11,508,101805,52282
161331,13036.960332984567,1671628266.11,508,101805,52282
161332,13036.955237316231,1671628266.11,510,101846,52310
161332,13036.962263931091,1671628266.11,510,101846,52310
161333,13036.96929054595,1671628266.11,508,101882,52303
161333,13036.97631716081,1671628266.11,508,101882,52303
161334,13036.98334377567,1671628266.199,509,101838,52307
161334,13036.99037039053,1671628266.199,509,101838,52307
161335,13036.997397005389,1671628266.199,507,101904,52322
161335,13037.004423620248,1671628266.199,507,101904,52322
161336,13037.011450235108,1671628266.199,508,101907,52318
161336,13037.018476849968,1671628266.199,508,101907,52318
161337,13037.025503464827,1671628266.199,508,101878,52294
161337,13037.032530079687,1671628266.199,508,101878,52294
161338,13037.039556694546,1671628266.199,510,101952,52325
161338,13037.046583309406,1671628266.199,510,101952,52325
161339,13037.053609924265,1671628266.199,508,102024,52337
161339,13037.060636539125,1671628266.199,508,102024,52337
161340,13037.067663153985,1671628266.307,509,102020,52344
161340,13037.074689768844,1671628266.307,509,102020,52344
161341,13037.081716383704,1671628266.307,508,101990,52345
161341,13037.088742998563,1671628266.307,508,101990,52345
161342,13037.111480878137,1671628266.307,510,102101,52356
161342,13037.119450658658,1671628266.307,510,102101,52356
161343,13037.12742043918,1671628266.307,508,102020,52360
161343,13037.1353902197,1671628266.307,508,102020,52360
161344,13037.143360000222,1671628266.307,507,102058,52354
161344,13037.151329780743,1671628266.307,507,102058,52354
161345,13037.159299561265,1671628266.307,510,102019,52354
161345,13037.167269341786,1671628266.307,510,102019,52354
161346,13037.175239122307,1671628266.396,508,102034,52355
161346,13037.183208902828,1671628266.396,508,102034,52355
161347,13037.19117868335,1671628266.396,510,102038,52357
161347,13037.199148463871,1671628266.396,510,102038,52357
161348,13037.207118244392,1671628266.396,509,102122,52375
161348,13037.215088024914,1671628266.396,509,102122,52375
161349,13037.223057805435,1671628266.396,509,102140,52386
161349,13037.231027585956,1671628266.396,509,102140,52386
161350,13037.238997366478,1671628266.396,508,102152,52383
161350,13037.246967146999,1671628266.396,508,102152,52383
161351,13037.25493692752,1671628266.396,507,102141,52385
161351,13037.262906708042,1671628266.396,507,102141,52385
161352,13037.271027414074,1671628266.487,507,102136,52381
161352,13037.27800106932,1671628266.487,507,102136,52381
161353,13037.284974724567,1671628266.487,508,102202,52395
161353,13037.291948379814,1671628266.487,508,102202,52395
161354,13037.298922035061,1671628266.487,509,102138,52413
161354,13037.305895690308,1671628266.487,509,102138,52413
161355,13037.312869345555,1671628266.487,509,102284,52433
161355,13037.319843000801,1671628266.487,509,102284,52433
161356,13037.326816656048,1671628266.487,510,102200,52386
161356,13037.333790311295,1671628266.487,510,102200,52386
161357,13037.340763966542,1671628266.487,509,102169,52391
161357,13037.347737621789,1671628266.487,509,102169,52391
161358,13037.354711277036,1671628266.583,508,101971,52327
161358,13037.361684932283,1671628266.583,508,101971,52327
161359,13037.36865858753,1671628266.583,509,101890,52316
161359,13037.375632242776,1671628266.583,509,101890,52316
161360,13037.382605898023,1671628266.583,508,101850,52286
161360,13037.38957955327,1671628266.583,508,101850,52286
161361,13037.396553208517,1671628266.583,507,101784,52299
161361,13037.403526863764,1671628266.583,507,101784,52299
161362,13037.426804860212,1671628266.583,508,101714,52264
161362,13037.434315402385,1671628266.583,508,101714,52264
161363,13037.441825944557,1671628266.583,508,101647,52256
161363,13037.44933648673,1671628266.583,508,101647,52256
161364,13037.456847028903,1671628266.676,507,101649,52247
161364,13037.464357571076,1671628266.676,507,101649,52247
161365,13037.471868113249,1671628266.676,509,101688,52246
161365,13037.479378655422,1671628266.676,509,101688,52246
161366,13037.486889197595,1671628266.676,508,101672,52243
161366,13037.494399739768,1671628266.676,508,101672,52243
161367,13037.50191028194,1671628266.676,508,101631,52216
161367,13037.509420824113,1671628266.676,508,101631,52216
161368,13037.516931366286,1671628266.676,509,101595,52233
161368,13037.52444190846,1671628266.676,509,101595,52233
161369,13037.531952450632,1671628266.676,507,101661,52220
161369,13037.539462992805,1671628266.676,507,101661,52220
161370,13037.546973534978,1671628266.769,508,101654,52223
161370,13037.55448407715,1671628266.769,508,101654,52223
161371,13037.561994619324,1671628266.769,510,101602,52210
161371,13037.569505161497,1671628266.769,510,101602,52210
161372,13037.582463402512,1671628266.769,509,101601,52228
161372,13037.589719844198,1671628266.769,509,101601,52228
161373,13037.596976285884,1671628266.769,508,101595,52224
161373,13037.60423272757,1671628266.769,508,101595,52224
161374,13037.611489169256,1671628266.769,508,101609,52197
161374,13037.618745610942,1671628266.769,508,101609,52197
161375,13037.626002052628,1671628266.769,509,101616,52199
161375,13037.633258494314,1671628266.769,509,101616,52199
161376,13037.640514936,1671628266.862,506,101620,52190
161376,13037.647771377686,1671628266.862,506,101620,52190
161377,13037.655027819372,1671628266.862,508,101626,52211
161377,13037.662284261058,1671628266.862,508,101626,52211
161378,13037.669540702744,1671628266.862,510,101616,52177
161378,13037.67679714443,1671628266.862,510,101616,52177
161379,13037.684053586116,1671628266.862,508,101584,52190
161379,13037.691310027802,1671628266.862,508,101584,52190
161380,13037.698566469488,1671628266.862,508,101559,52152
161380,13037.705822911174,1671628266.862,508,101559,52152
161381,13037.71307935286,1671628266.862,508,101583,52179
161381,13037.720335794545,1671628266.862,508,101583,52179
161382,13037.737274150977,1671628266.954,509,101526,52160
161382,13037.744530725544,1671628266.954,509,101526,52160
161383,13037.75178730011,1671628266.954,507,101549,52163
161383,13037.759043874677,1671628266.954,507,101549,52163
161384,13037.766300449244,1671628266.954,508,101516,52146
161384,13037.773557023811,1671628266.954,508,101516,52146
161385,13037.780813598378,1671628266.954,509,101532,52147
161385,13037.788070172945,1671628266.954,509,101532,52147
161386,13037.795326747511,1671628266.954,507,101532,52140
161386,13037.802583322078,1671628266.954,507,101532,52140
161387,13037.809839896645,1671628266.954,508,101685,52188
161387,13037.817096471212,1671628266.954,508,101685,52188
161388,13037.824353045778,1671628267.063,508,101583,52184
161388,13037.831609620345,1671628267.063,508,101583,52184
161389,13037.838866194912,1671628267.063,506,101662,52205
161389,13037.846122769479,1671628267.063,506,101662,52205
161390,13037.853379344046,1671628267.063,508,101622,52181
161390,13037.860635918612,1671628267.063,508,101622,52181
161391,13037.86789249318,1671628267.063,508,101745,52180
161391,13037.875149067746,1671628267.063,508,101745,52180
161392,13037.903967125263,1671628267.063,507,101689,52194
161392,13037.91243705131,1671628267.063,507,101689,52194
161393,13037.920906977355,1671628267.063,507,101646,52171
161393,13037.929376903401,1671628267.063,507,101646,52171
161394,13037.937846829447,1671628267.148,508,101733,52183
161394,13037.946316755493,1671628267.148,508,101733,52183
161395,13037.95478668154,1671628267.148,508,101651,52176
161395,13037.963256607585,1671628267.148,508,101651,52176
161396,13037.971726533631,1671628267.148,508,101739,52184
161396,13037.980196459677,1671628267.148,508,101739,52184
161397,13037.988666385723,1671628267.148,508,101767,52194
161397,13037.99713631177,1671628267.148,508,101767,52194
161398,13038.005606237815,1671628267.148,507,101786,52192
161398,13038.014076163861,1671628267.148,507,101786,52192
161399,13038.022546089907,1671628267.148,507,101760,52209
161399,13038.031016015953,1671628267.148,507,101760,52209
161400,13038.039485942,1671628267.237,506,101675,52180
161400,13038.047955868045,1671628267.237,506,101675,52180
161401,13038.056425794091,1671628267.237,508,101836,52221
161401,13038.064895720137,1671628267.237,508,101836,52221
161402,13038.052353178593,1671628267.237,508,101793,52202
161402,13038.059213154756,1671628267.237,508,101793,52202
161403,13038.06607313092,1671628267.237,508,101716,52180
161403,13038.072933107083,1671628267.237,508,101716,52180
161404,13038.079793083247,1671628267.237,509,101752,52186
161404,13038.08665305941,1671628267.237,509,101752,52186
161405,13038.093513035574,1671628267.237,508,101835,52206
161405,13038.100373011737,1671628267.237,508,101835,52206
161406,13038.1072329879,1671628267.324,508,101843,52205
161406,13038.114092964064,1671628267.324,508,101843,52205
161407,13038.120952940228,1671628267.324,508,101963,52216
161407,13038.127812916391,1671628267.324,508,101963,52216
161408,13038.134672892555,1671628267.324,509,101851,52221
161408,13038.141532868718,1671628267.324,509,101851,52221
161409,13038.148392844882,1671628267.324,508,101874,52209
161409,13038.155252821045,1671628267.324,508,101874,52209
161410,13038.162112797208,1671628267.324,508,101917,52211
161410,13038.168972773372,1671628267.324,508,101917,52211
161411,13038.175832749535,1671628267.324,509,101924,52207
161411,13038.182692725699,1671628267.324,509,101924,52207
161412,13038.19949068162,1671628267.426,509,101947,52231
161412,13038.206335151284,1671628267.426,509,101947,52231
161413,13038.213179620949,1671628267.426,508,101915,52212
161413,13038.220024090613,1671628267.426,508,101915,52212
161414,13038.226868560278,1671628267.426,508,102021,52253
161414,13038.233713029942,1671628267.426,508,102021,52253
161415,13038.240557499606,1671628267.426,508,101949,52229
161415,13038.24740196927,1671628267.426,508,101949,52229
161416,13038.254246438935,1671628267.426,507,102008,52269
161416,13038.2610909086,1671628267.426,507,102008,52269
161417,13038.267935378264,1671628267.426,508,102080,52245
161417,13038.274779847929,1671628267.426,508,102080,52245
161418,13038.281624317593,1671628267.519,506,102013,52255
161418,13038.288468787257,1671628267.519,506,102013,52255
161419,13038.295313256922,1671628267.519,507,102075,52271
161419,13038.302157726586,1671628267.519,507,102075,52271
161420,13038.30900219625,1671628267.519,509,102079,52264
161420,13038.315846665915,1671628267.519,509,102079,52264
161421,13038.32269113558,1671628267.519,507,102147,52272
161421,13038.329535605244,1671628267.519,507,102147,52272
161422,13038.36335133028,1671628267.519,508,102074,52250
161422,13038.370632957598,1671628267.519,508,102074,52250
161423,13038.377914584917,1671628267.519,508,102144,52260
161423,13038.385196212235,1671628267.519,508,102144,52260
161424,13038.392477839554,1671628267.61,506,102286,52303
161424,13038.399759466873,1671628267.61,506,102286,52303
161425,13038.407041094191,1671628267.61,509,102187,52289
161425,13038.41432272151,1671628267.61,509,102187,52289
161426,13038.421604348829,1671628267.61,508,102118,52267
161426,13038.428885976147,1671628267.61,508,102118,52267
161427,13038.436167603466,1671628267.61,509,101979,52260
161427,13038.443449230785,1671628267.61,509,101979,52260
161428,13038.450730858103,1671628267.61,510,101935,52220
161428,13038.458012485422,1671628267.61,510,101935,52220
161429,13038.46529411274,1671628267.61,508,101909,52209
161429,13038.47257574006,1671628267.61,508,101909,52209
161430,13038.479857367378,1671628267.698,509,101739,52173
161430,13038.487138994697,1671628267.698,509,101739,52173
161431,13038.494420622015,1671628267.698,507,101618,52133
161431,13038.501702249334,1671628267.698,507,101618,52133
161432,13038.514582598013,1671628267.698,507,101624,52145
161432,13038.521552631199,1671628267.698,507,101624,52145
161433,13038.528522664385,1671628267.698,507,101579,52107
161433,13038.53549269757,1671628267.698,507,101579,52107
161434,13038.542462730757,1671628267.698,508,101633,52134
161434,13038.549432763943,1671628267.698,508,101633,52134
161435,13038.556402797129,1671628267.698,508,101618,52112
161435,13038.563372830315,1671628267.698,508,101618,52112
161436,13038.5703428635,1671628267.805,508,101508,52106
161436,13038.577312896687,1671628267.805,508,101508,52106
161437,13038.584282929873,1671628267.805,508,101521,52072
161437,13038.591252963059,1671628267.805,508,101521,52072
161438,13038.598222996245,1671628267.805,508,101569,52108
161438,13038.60519302943,1671628267.805,508,101569,52108
161439,13038.612163062617,1671628267.805,508,101511,52086
161439,13038.619133095803,1671628267.805,508,101511,52086
161440,13038.626103128989,1671628267.805,507,101603,52114
161440,13038.633073162175,1671628267.805,507,101603,52114
161441,13038.64004319536,1671628267.805,508,101498,52085
