id,lsl_ts,unix_ts,ambient,ir,red
211050,14553.285301433334,1671629782.433,556,102467,62872
211050,14553.285301433334,1671629782.433,556,102467,62872
211051,14553.288011266666,1671629782.433,537,111440,63539
211051,14553.288011266666,1671629782.433,537,111440,63539
211052,14553.2907211,1671629782.433,537,111403,63510
211052,14553.2907211,1671629782.433,537,111403,63510
211053,14553.293430933334,1671629782.433,534,111469,63527
211053,14553.293430933334,1671629782.433,534,111469,63527
211054,14553.296140766666,1671629782.433,534,111486,63529
211054,14553.296140766666,1671629782.433,534,111486,63529
211055,14553.2988506,1671629782.433,534,111365,63513
211055,14553.2988506,1671629782.433,534,111365,63513
211056,14553.30950755,1671629782.497,535,111439,63521
211056,14553.30950755,1671629782.497,535,111439,63521
211057,14553.3201645,1671629782.497,535,111489,63535
211057,14553.3201645,1671629782.497,535,111489,63535
211058,14553.33082145,1671629782.497,535,111548,63536
211058,14553.33082145,1671629782.497,535,111548,63536
211059,14553.3414784,1671629782.497,534,111427,63518
211059,14553.3414784,1671629782.497,534,111427,63518
211060,14553.35213535,1671629782.497,533,111412,63487
211060,14553.35213535,1671629782.497,533,111412,63487
211061,14553.3627923,1671629782.497,531,111411,63477
211061,14553.3627923,1671629782.497,531,111411,63477
211062,14553.371317916666,1671629782.548,533,111400,63482
211062,14553.371317916666,1671629782.548,533,111400,63482
211063,14553.379843533334,1671629782.548,532,111459,63492
211063,14553.379843533334,1671629782.548,532,111459,63492
211064,14553.388369150001,1671629782.548,532,111426,63476
211064,14553.388369150001,1671629782.548,532,111426,63476
211065,14553.396894766667,1671629782.548,533,111345,63462
211065,14553.396894766667,1671629782.548,533,111345,63462
211066,14553.405420383333,1671629782.548,534,111442,63476
211066,14553.405420383333,1671629782.548,534,111442,63476
211067,14553.413946,1671629782.548,533,111511,63472
211067,14553.413946,1671629782.548,533,111511,63472
211068,14553.42515155,1671629782.615,532,111363,63469
211068,14553.42515155,1671629782.615,532,111363,63469
211069,14553.436357100001,1671629782.615,533,111373,63458
211069,14553.436357100001,1671629782.615,533,111373,63458
211070,14553.44756265,1671629782.615,531,111332,63450
211070,14553.44756265,1671629782.615,531,111332,63450
211071,14553.4587682,1671629782.615,531,111377,63464
211071,14553.4587682,1671629782.615,531,111377,63464
211072,14553.469973750001,1671629782.615,532,111422,63494
211072,14553.469973750001,1671629782.615,532,111422,63494
211073,14553.4811793,1671629782.615,532,111368,63472
211073,14553.4811793,1671629782.615,532,111368,63472
211074,14553.49650345,1671629782.707,534,111456,63469
211074,14553.49650345,1671629782.707,534,111456,63469
211075,14553.511827600001,1671629782.707,533,111459,63482
211075,14553.511827600001,1671629782.707,533,111459,63482
211076,14553.52715175,1671629782.707,533,111459,63492
211076,14553.52715175,1671629782.707,533,111459,63492
211077,14553.5424759,1671629782.707,533,111378,63483
211077,14553.5424759,1671629782.707,533,111378,63483
211078,14553.55780005,1671629782.707,532,111382,63451
211078,14553.55780005,1671629782.707,532,111382,63451
211079,14553.5731242,1671629782.707,532,111430,63474
211079,14553.5731242,1671629782.707,532,111430,63474
211080,14553.588823133334,1671629782.801,532,111420,63467
211080,14553.588823133334,1671629782.801,532,111420,63467
211081,14553.604522066667,1671629782.801,533,111355,63451
211081,14553.604522066667,1671629782.801,533,111355,63451
211082,14553.620221000001,1671629782.801,533,111456,63455
211082,14553.620221000001,1671629782.801,533,111456,63455
211083,14553.635919933333,1671629782.801,532,111464,63487
211083,14553.635919933333,1671629782.801,532,111464,63487
211084,14553.651618866666,1671629782.801,533,111370,63463
211084,14553.651618866666,1671629782.801,533,111370,63463
211085,14553.6673178,1671629782.801,533,111427,63455
211085,14553.6673178,1671629782.801,533,111427,63455
211086,14553.683665316667,1671629782.899,532,111388,63475
211086,14553.683665316667,1671629782.899,532,111388,63475
211087,14553.700012833333,1671629782.899,532,111476,63471
211087,14553.700012833333,1671629782.899,532,111476,63471
211088,14553.716360350001,1671629782.899,530,111540,63472
211088,14553.716360350001,1671629782.899,530,111540,63472
211089,14553.732707866668,1671629782.899,532,111531,63479
211089,14553.732707866668,1671629782.899,532,111531,63479
211090,14553.749055383334,1671629782.899,533,111449,63457
211090,14553.749055383334,1671629782.899,533,111449,63457
211091,14553.7654029,1671629782.899,533,111403,63468
211091,14553.7654029,1671629782.899,533,111403,63468
211092,14553.7811727,1671629782.994,533,111519,63481
211092,14553.7811727,1671629782.994,533,111519,63481
211093,14553.796942500001,1671629782.994,533,111523,63455
211093,14553.796942500001,1671629782.994,533,111523,63455
211094,14553.812712300001,1671629782.994,532,111515,63469
211094,14553.812712300001,1671629782.994,532,111515,63469
211095,14553.8284821,1671629782.994,530,111443,63467
211095,14553.8284821,1671629782.994,530,111443,63467
211096,14553.8442519,1671629782.994,532,111473,63453
211096,14553.8442519,1671629782.994,532,111473,63453
211097,14553.8600217,1671629782.994,533,111584,63472
211097,14553.8600217,1671629782.994,533,111584,63472
211098,14553.874181216666,1671629783.079,534,111589,63515
211098,14553.874181216666,1671629783.079,534,111589,63515
211099,14553.888340733334,1671629783.079,534,111544,63456
211099,14553.888340733334,1671629783.079,534,111544,63456
211100,14553.90250025,1671629783.079,533,111580,63472
211100,14553.90250025,1671629783.079,533,111580,63472
211101,14553.916659766666,1671629783.079,533,111581,63493
211101,14553.916659766666,1671629783.079,533,111581,63493
211102,14553.930819283334,1671629783.079,533,111525,63465
211102,14553.930819283334,1671629783.079,533,111525,63465
211103,14553.9449788,1671629783.079,532,111569,63465
211103,14553.9449788,1671629783.079,532,111569,63465
211104,14553.962688916667,1671629783.185,532,111598,63479
211104,14553.962688916667,1671629783.185,532,111598,63479
211105,14553.980399033333,1671629783.185,532,111489,63461
211105,14553.980399033333,1671629783.185,532,111489,63461
211106,14553.998109150001,1671629783.185,534,111493,63444
211106,14553.998109150001,1671629783.185,534,111493,63444
211107,14554.015819266668,1671629783.185,533,111524,63443
211107,14554.015819266668,1671629783.185,533,111524,63443
211108,14554.033529383334,1671629783.185,532,111555,63445
211108,14554.033529383334,1671629783.185,532,111555,63445
211109,14554.0512395,1671629783.185,534,111535,63452
211109,14554.0512395,1671629783.185,534,111535,63452
211110,14554.06651115,1671629783.277,531,111570,63438
211110,14554.06651115,1671629783.277,531,111570,63438
211111,14554.0817828,1671629783.277,531,111512,63448
211111,14554.0817828,1671629783.277,531,111512,63448
211112,14554.097054450001,1671629783.277,531,111491,63436
211112,14554.097054450001,1671629783.277,531,111491,63436
211113,14554.112326100001,1671629783.277,532,111422,63426
211113,14554.112326100001,1671629783.277,532,111422,63426
211114,14554.12759775,1671629783.277,535,111437,63429
211114,14554.12759775,1671629783.277,535,111437,63429
211115,14554.1428694,1671629783.277,534,111551,63442
211115,14554.1428694,1671629783.277,534,111551,63442
211116,14554.15773045,1671629783.366,533,111528,63447
211116,14554.15773045,1671629783.366,533,111528,63447
211117,14554.1725915,1671629783.366,535,111517,63442
211117,14554.1725915,1671629783.366,535,111517,63442
211118,14554.18745255,1671629783.366,533,111487,63441
211118,14554.18745255,1671629783.366,533,111487,63441
211119,14554.2023136,1671629783.366,532,111517,63428
211119,14554.2023136,1671629783.366,532,111517,63428
211120,14554.21717465,1671629783.366,532,111536,63443
211120,14554.21717465,1671629783.366,532,111536,63443
211121,14554.2320357,1671629783.366,532,111543,63427
211121,14554.2320357,1671629783.366,532,111543,63427
211122,14554.247667483334,1671629783.46,532,111479,63442
211122,14554.247667483334,1671629783.46,532,111479,63442
211123,14554.263299266668,1671629783.46,533,111530,63444
211123,14554.263299266668,1671629783.46,533,111530,63444
211124,14554.278931050001,1671629783.46,534,111508,63416
211124,14554.278931050001,1671629783.46,534,111508,63416
211125,14554.294562833333,1671629783.46,532,111560,63435
211125,14554.294562833333,1671629783.46,532,111560,63435
211126,14554.310194616666,1671629783.46,532,111611,63439
211126,14554.310194616666,1671629783.46,532,111611,63439
211127,14554.3258264,1671629783.46,533,111606,63441
211127,14554.3258264,1671629783.46,533,111606,63441
211128,14554.340654666667,1671629783.548,531,111526,63419
211128,14554.340654666667,1671629783.548,531,111526,63419
211129,14554.355482933333,1671629783.548,534,111477,63418
211129,14554.355482933333,1671629783.548,534,111477,63418
211130,14554.3703112,1671629783.548,533,111558,63441
211130,14554.3703112,1671629783.548,533,111558,63441
211131,14554.385139466665,1671629783.548,534,111633,63444
211131,14554.385139466665,1671629783.548,534,111633,63444
211132,14554.399967733332,1671629783.548,534,111528,63429
211132,14554.399967733332,1671629783.548,534,111528,63429
211133,14554.414796,1671629783.548,534,111625,63437
211133,14554.414796,1671629783.548,534,111625,63437
211134,14554.431327433333,1671629783.648,533,111603,63442
211134,14554.431327433333,1671629783.648,533,111603,63442
211135,14554.447858866666,1671629783.648,531,111592,63447
211135,14554.447858866666,1671629783.648,531,111592,63447
211136,14554.4643903,1671629783.648,532,111640,63461
211136,14554.4643903,1671629783.648,532,111640,63461
211137,14554.480921733333,1671629783.648,532,111657,63436
211137,14554.480921733333,1671629783.648,532,111657,63436
211138,14554.497453166667,1671629783.648,533,111659,63456
211138,14554.497453166667,1671629783.648,533,111659,63456
211139,14554.5139846,1671629783.648,533,111623,63449
211139,14554.5139846,1671629783.648,533,111623,63449
211140,14554.530265916666,1671629783.745,534,111587,63422
211140,14554.530265916666,1671629783.745,534,111587,63422
211141,14554.546547233333,1671629783.745,534,111584,63429
211141,14554.546547233333,1671629783.745,534,111584,63429
211142,14554.562828549999,1671629783.745,532,111653,63428
211142,14554.562828549999,1671629783.745,532,111653,63428
211143,14554.579109866667,1671629783.745,530,111692,63456
211143,14554.579109866667,1671629783.745,530,111692,63456
211144,14554.595391183333,1671629783.745,533,111657,63438
211144,14554.595391183333,1671629783.745,533,111657,63438
211145,14554.6116725,1671629783.745,532,111624,63446
211145,14554.6116725,1671629783.745,532,111624,63446
211146,14554.62636655,1671629783.834,533,111782,63457
211146,14554.62636655,1671629783.834,533,111782,63457
211147,14554.641060599999,1671629783.834,533,111717,63455
211147,14554.641060599999,1671629783.834,533,111717,63455
211148,14554.65575465,1671629783.834,532,111707,63450
211148,14554.65575465,1671629783.834,532,111707,63450
211149,14554.6704487,1671629783.834,534,111759,63444
211149,14554.6704487,1671629783.834,534,111759,63444
211150,14554.68514275,1671629783.834,532,111812,63485
211150,14554.68514275,1671629783.834,532,111812,63485
211151,14554.6998368,1671629783.834,531,111785,63451
211151,14554.6998368,1671629783.834,531,111785,63451
211152,14554.715256766667,1671629783.926,532,111764,63430
211152,14554.715256766667,1671629783.926,532,111764,63430
211153,14554.730676733334,1671629783.926,532,111761,63417
211153,14554.730676733334,1671629783.926,532,111761,63417
211154,14554.7460967,1671629783.926,531,111687,63417
211154,14554.7460967,1671629783.926,531,111687,63417
211155,14554.761516666667,1671629783.926,532,111710,63427
211155,14554.761516666667,1671629783.926,532,111710,63427
211156,14554.776936633334,1671629783.926,534,111572,63408
211156,14554.776936633334,1671629783.926,534,111572,63408
211157,14554.7923566,1671629783.926,534,111638,63392
211157,14554.7923566,1671629783.926,534,111638,63392
211158,14554.8072962,1671629784.016,532,111650,63401
211158,14554.8072962,1671629784.016,532,111650,63401
211159,14554.8222358,1671629784.016,531,111708,63436
211159,14554.8222358,1671629784.016,531,111708,63436
211160,14554.8371754,1671629784.016,530,111707,63417
211160,14554.8371754,1671629784.016,530,111707,63417
211161,14554.852115,1671629784.016,531,111751,63436
211161,14554.852115,1671629784.016,531,111751,63436
211162,14554.8670546,1671629784.016,532,111677,63429
211162,14554.8670546,1671629784.016,532,111677,63429
211163,14554.8819942,1671629784.016,533,111628,63444
211163,14554.8819942,1671629784.016,533,111628,63444
211164,14554.898485166666,1671629784.115,535,111641,63413
211164,14554.898485166666,1671629784.115,535,111641,63413
211165,14554.914976133332,1671629784.115,532,111722,63416
211165,14554.914976133332,1671629784.115,532,111722,63416
211166,14554.9314671,1671629784.115,534,111685,63410
211166,14554.9314671,1671629784.115,534,111685,63410
211167,14554.947958066667,1671629784.115,532,111585,63389
211167,14554.947958066667,1671629784.115,532,111585,63389
211168,14554.964449033332,1671629784.115,533,111633,63388
211168,14554.964449033332,1671629784.115,533,111633,63388
211169,14554.98094,1671629784.115,532,111591,63404
211169,14554.98094,1671629784.115,532,111591,63404
211170,14554.9967975,1671629784.21,532,111627,63399
211170,14554.9967975,1671629784.21,532,111627,63399
211171,14555.012655,1671629784.21,533,111694,63375
211171,14555.012655,1671629784.21,533,111694,63375
211172,14555.028512500001,1671629784.21,533,111666,63408
211172,14555.028512500001,1671629784.21,533,111666,63408
211173,14555.04437,1671629784.21,533,111728,63394
211173,14555.04437,1671629784.21,533,111728,63394
211174,14555.0602275,1671629784.21,532,111703,63403
211174,14555.0602275,1671629784.21,532,111703,63403
211175,14555.076085,1671629784.21,532,111679,63407
211175,14555.076085,1671629784.21,532,111679,63407
211176,14555.090377816667,1671629784.296,530,111791,63415
211176,14555.090377816667,1671629784.296,530,111791,63415
211177,14555.104670633335,1671629784.296,531,111665,63394
211177,14555.104670633335,1671629784.296,531,111665,63394
211178,14555.11896345,1671629784.296,533,111644,63371
211178,14555.11896345,1671629784.296,533,111644,63371
211179,14555.133256266667,1671629784.296,531,111774,63398
211179,14555.133256266667,1671629784.296,531,111774,63398
211180,14555.147549083335,1671629784.296,533,111750,63383
211180,14555.147549083335,1671629784.296,533,111750,63383
211181,14555.1618419,1671629784.296,533,111642,63380
211181,14555.1618419,1671629784.296,533,111642,63380
211182,14555.178931850001,1671629784.398,533,111715,63384
211182,14555.178931850001,1671629784.398,533,111715,63384
211183,14555.1960218,1671629784.398,534,111670,63394
211183,14555.1960218,1671629784.398,534,111670,63394
211184,14555.21311175,1671629784.398,533,111744,63378
211184,14555.21311175,1671629784.398,533,111744,63378
211185,14555.2302017,1671629784.398,530,111740,63400
211185,14555.2302017,1671629784.398,530,111740,63400
211186,14555.247291650001,1671629784.398,533,111853,63405
211186,14555.247291650001,1671629784.398,533,111853,63405
211187,14555.2643816,1671629784.398,531,111836,63392
211187,14555.2643816,1671629784.398,531,111836,63392
211188,14555.280099483334,1671629784.492,534,111810,63381
211188,14555.280099483334,1671629784.492,534,111810,63381
211189,14555.295817366667,1671629784.492,533,111803,63396
211189,14555.295817366667,1671629784.492,533,111803,63396
211190,14555.311535249999,1671629784.492,533,111801,63397
211190,14555.311535249999,1671629784.492,533,111801,63397
211191,14555.327253133333,1671629784.492,532,111844,63397
211191,14555.327253133333,1671629784.492,532,111844,63397
211192,14555.342971016667,1671629784.492,531,111846,63427
211192,14555.342971016667,1671629784.492,531,111846,63427
211193,14555.3586889,1671629784.492,531,111782,63409
211193,14555.3586889,1671629784.492,531,111782,63409
211194,14555.372796399999,1671629784.577,531,111906,63401
211194,14555.372796399999,1671629784.577,531,111906,63401
211195,14555.3869039,1671629784.577,532,111906,63404
211195,14555.3869039,1671629784.577,532,111906,63404
211196,14555.401011400001,1671629784.577,533,111873,63412
211196,14555.401011400001,1671629784.577,533,111873,63412
211197,14555.4151189,1671629784.577,535,111892,63408
211197,14555.4151189,1671629784.577,535,111892,63408
211198,14555.4292264,1671629784.577,532,111833,63394
211198,14555.4292264,1671629784.577,532,111833,63394
211199,14555.4433339,1671629784.577,533,111816,63407
211199,14555.4433339,1671629784.577,533,111816,63407
211200,14555.460938683334,1671629784.683,531,111964,63400
211200,14555.460938683334,1671629784.683,531,111964,63400
211201,14555.478543466666,1671629784.683,529,111851,63403
211201,14555.478543466666,1671629784.683,529,111851,63403
211202,14555.49614825,1671629784.683,532,111815,63371
211202,14555.49614825,1671629784.683,532,111815,63371
211203,14555.513753033334,1671629784.683,533,111838,63388
211203,14555.513753033334,1671629784.683,533,111838,63388
211204,14555.531357816666,1671629784.683,536,111804,63367
211204,14555.531357816666,1671629784.683,536,111804,63367
211205,14555.5489626,1671629784.683,534,111798,63360
211205,14555.5489626,1671629784.683,534,111798,63360
211206,14555.56266975,1671629784.765,534,111757,63359
211206,14555.56266975,1671629784.765,534,111757,63359
211207,14555.5763769,1671629784.765,534,111777,63354
211207,14555.5763769,1671629784.765,534,111777,63354
211208,14555.59008405,1671629784.765,531,111818,63377
211208,14555.59008405,1671629784.765,531,111818,63377
211209,14555.6037912,1671629784.765,531,111738,63350
211209,14555.6037912,1671629784.765,531,111738,63350
211210,14555.61749835,1671629784.765,532,111751,63335
211210,14555.61749835,1671629784.765,532,111751,63335
211211,14555.6312055,1671629784.765,531,111784,63365
211211,14555.6312055,1671629784.765,531,111784,63365
211212,14555.647935533332,1671629784.865,534,111834,63359
211212,14555.647935533332,1671629784.865,534,111834,63359
211213,14555.664665566666,1671629784.865,532,111772,63356
211213,14555.664665566666,1671629784.865,532,111772,63356
211214,14555.6813956,1671629784.865,533,111825,63368
211214,14555.6813956,1671629784.865,533,111825,63368
211215,14555.698125633333,1671629784.865,531,111857,63362
211215,14555.698125633333,1671629784.865,531,111857,63362
211216,14555.714855666665,1671629784.865,531,111863,63337
211216,14555.714855666665,1671629784.865,531,111863,63337
211217,14555.7315857,1671629784.865,531,111855,63366
211217,14555.7315857,1671629784.865,531,111855,63366
211218,14555.748664583332,1671629784.968,531,111766,63349
211218,14555.748664583332,1671629784.968,531,111766,63349
211219,14555.765743466667,1671629784.968,532,111771,63352
211219,14555.765743466667,1671629784.968,532,111771,63352
211220,14555.78282235,1671629784.968,534,111803,63325
211220,14555.78282235,1671629784.968,534,111803,63325
211221,14555.799901233333,1671629784.968,532,111776,63338
211221,14555.799901233333,1671629784.968,532,111776,63338
211222,14555.816980116668,1671629784.968,533,111732,63313
211222,14555.816980116668,1671629784.968,533,111732,63313
211223,14555.834059,1671629784.968,532,111837,63363
211223,14555.834059,1671629784.968,532,111837,63363
211224,14555.847313183334,1671629785.047,531,111829,63337
211224,14555.847313183334,1671629785.047,531,111829,63337
211225,14555.860567366668,1671629785.047,531,111807,63337
211225,14555.860567366668,1671629785.047,531,111807,63337
211226,14555.873821550002,1671629785.047,531,111755,63327
211226,14555.873821550002,1671629785.047,531,111755,63327
211227,14555.887075733333,1671629785.047,530,111817,63322
211227,14555.887075733333,1671629785.047,530,111817,63322
211228,14555.900329916667,1671629785.047,533,111716,63318
211228,14555.900329916667,1671629785.047,533,111716,63318
211229,14555.9135841,1671629785.047,533,111791,63318
211229,14555.9135841,1671629785.047,533,111791,63318
211230,14555.933467133334,1671629785.167,533,111847,63335
211230,14555.933467133334,1671629785.167,533,111847,63335
211231,14555.953350166666,1671629785.167,532,111814,63337
211231,14555.953350166666,1671629785.167,532,111814,63337
211232,14555.9732332,1671629785.167,532,111851,63320
211232,14555.9732332,1671629785.167,532,111851,63320
211233,14555.993116233334,1671629785.167,530,111938,63330
211233,14555.993116233334,1671629785.167,530,111938,63330
211234,14556.012999266666,1671629785.167,530,111895,63324
211234,14556.012999266666,1671629785.167,530,111895,63324
211235,14556.0328823,1671629785.167,533,111902,63325
211235,14556.0328823,1671629785.167,533,111902,63325
211236,14556.044933983334,1671629785.239,533,111832,63325
211236,14556.044933983334,1671629785.239,533,111832,63325
211237,14556.056985666666,1671629785.239,533,111854,63302
211237,14556.056985666666,1671629785.239,533,111854,63302
211238,14556.06903735,1671629785.239,532,111846,63311
211238,14556.06903735,1671629785.239,532,111846,63311
211239,14556.081089033334,1671629785.239,532,111870,63317
211239,14556.081089033334,1671629785.239,532,111870,63317
211240,14556.093140716666,1671629785.239,531,111867,63302
211240,14556.093140716666,1671629785.239,531,111867,63302
211241,14556.1051924,1671629785.239,533,111869,63324
211241,14556.1051924,1671629785.239,533,111869,63324
211242,14556.119724583334,1671629785.326,531,111864,63332
211242,14556.119724583334,1671629785.326,531,111864,63332
211243,14556.134256766667,1671629785.326,532,111892,63303
211243,14556.134256766667,1671629785.326,532,111892,63303
211244,14556.14878895,1671629785.326,533,111858,63304
211244,14556.14878895,1671629785.326,533,111858,63304
211245,14556.163321133334,1671629785.326,533,112009,63330
211245,14556.163321133334,1671629785.326,533,112009,63330
211246,14556.177853316667,1671629785.326,534,111908,63307
211246,14556.177853316667,1671629785.326,534,111908,63307
211247,14556.1923855,1671629785.326,530,112030,63325
211247,14556.1923855,1671629785.326,530,112030,63325
211248,14556.20876655,1671629785.424,531,111949,63316
211248,14556.20876655,1671629785.424,531,111949,63316
211249,14556.2251476,1671629785.424,532,111929,63315
211249,14556.2251476,1671629785.424,532,111929,63315
211250,14556.24152865,1671629785.424,532,112018,63347
211250,14556.24152865,1671629785.424,532,112018,63347
211251,14556.2579097,1671629785.424,532,112017,63346
211251,14556.2579097,1671629785.424,532,112017,63346
211252,14556.27429075,1671629785.424,532,112012,63338
211252,14556.27429075,1671629785.424,532,112012,63338
211253,14556.2906718,1671629785.424,534,112004,63326
211253,14556.2906718,1671629785.424,534,112004,63326
211254,14556.308087316665,1671629785.529,533,111998,63331
211254,14556.308087316665,1671629785.529,533,111998,63331
211255,14556.325502833333,1671629785.529,532,112080,63344
211255,14556.325502833333,1671629785.529,532,112080,63344
211256,14556.34291835,1671629785.529,532,112025,63347
211256,14556.34291835,1671629785.529,532,112025,63347
211257,14556.360333866665,1671629785.529,532,111992,63280
211257,14556.360333866665,1671629785.529,532,111992,63280
211258,14556.377749383333,1671629785.529,529,111997,63315
211258,14556.377749383333,1671629785.529,529,111997,63315
211259,14556.3951649,1671629785.529,532,111929,63267
211259,14556.3951649,1671629785.529,532,111929,63267
211260,14556.409493866666,1671629785.615,531,111888,63278
211260,14556.409493866666,1671629785.615,531,111888,63278
211261,14556.423822833332,1671629785.615,532,111987,63276
211261,14556.423822833332,1671629785.615,532,111987,63276
211262,14556.438151800001,1671629785.615,532,111964,63253
211262,14556.438151800001,1671629785.615,532,111964,63253
211263,14556.452480766668,1671629785.615,533,111871,63251
211263,14556.452480766668,1671629785.615,533,111871,63251
211264,14556.466809733334,1671629785.615,531,111958,63270
211264,14556.466809733334,1671629785.615,531,111958,63270
211265,14556.4811387,1671629785.615,530,111905,63275
211265,14556.4811387,1671629785.615,530,111905,63275
211266,14556.4977105,1671629785.714,532,111902,63263
211266,14556.4977105,1671629785.714,532,111902,63263
211267,14556.5142823,1671629785.714,530,111903,63254
211267,14556.5142823,1671629785.714,530,111903,63254
211268,14556.530854100001,1671629785.714,531,111845,63246
211268,14556.530854100001,1671629785.714,531,111845,63246
211269,14556.5474259,1671629785.714,531,111910,63254
211269,14556.5474259,1671629785.714,531,111910,63254
211270,14556.5639977,1671629785.714,532,111866,63231
211270,14556.5639977,1671629785.714,532,111866,63231
211271,14556.5805695,1671629785.714,529,111855,63258
211271,14556.5805695,1671629785.714,529,111855,63258
211272,14556.59460465,1671629785.798,531,111914,63240
211272,14556.59460465,1671629785.798,531,111914,63240
211273,14556.6086398,1671629785.798,531,111916,63249
211273,14556.6086398,1671629785.798,531,111916,63249
211274,14556.62267495,1671629785.798,530,111950,63264
211274,14556.62267495,1671629785.798,530,111950,63264
211275,14556.6367101,1671629785.798,529,111955,63247
211275,14556.6367101,1671629785.798,529,111955,63247
211276,14556.65074525,1671629785.798,531,111914,63244
211276,14556.65074525,1671629785.798,531,111914,63244
211277,14556.6647804,1671629785.798,532,111807,63214
211277,14556.6647804,1671629785.798,532,111807,63214
211278,14556.681614000001,1671629785.899,531,111887,63235
211278,14556.681614000001,1671629785.899,531,111887,63235
211279,14556.6984476,1671629785.899,533,111907,63231
211279,14556.6984476,1671629785.899,533,111907,63231
211280,14556.7152812,1671629785.899,533,111890,63218
211280,14556.7152812,1671629785.899,533,111890,63218
211281,14556.732114800001,1671629785.899,531,111817,63217
211281,14556.732114800001,1671629785.899,531,111817,63217
211282,14556.7489484,1671629785.899,531,111914,63218
211282,14556.7489484,1671629785.899,531,111914,63218
211283,14556.765782,1671629785.899,531,111880,63194
211283,14556.765782,1671629785.899,531,111880,63194
211284,14556.781543233334,1671629785.994,532,111871,63181
211284,14556.781543233334,1671629785.994,532,111871,63181
211285,14556.797304466667,1671629785.994,533,111848,63195
211285,14556.797304466667,1671629785.994,533,111848,63195
211286,14556.8130657,1671629785.994,532,111830,63201
211286,14556.8130657,1671629785.994,532,111830,63201
211287,14556.828826933333,1671629785.994,532,111952,63235
211287,14556.828826933333,1671629785.994,532,111952,63235
211288,14556.844588166667,1671629785.994,533,111866,63194
211288,14556.844588166667,1671629785.994,533,111866,63194
211289,14556.8603494,1671629785.994,532,111822,63173
211289,14556.8603494,1671629785.994,532,111822,63173
211290,14556.874268766667,1671629786.078,531,111857,63164
211290,14556.874268766667,1671629786.078,531,111857,63164
211291,14556.888188133333,1671629786.078,530,111958,63217
211291,14556.888188133333,1671629786.078,530,111958,63217
211292,14556.9021075,1671629786.078,533,111852,63178
211292,14556.9021075,1671629786.078,533,111852,63178
211293,14556.916026866667,1671629786.078,532,111962,63197
211293,14556.916026866667,1671629786.078,532,111962,63197
211294,14556.929946233333,1671629786.078,534,111971,63191
211294,14556.929946233333,1671629786.078,534,111971,63191
211295,14556.9438656,1671629786.078,533,111960,63197
211295,14556.9438656,1671629786.078,533,111960,63197
211296,14556.960883683334,1671629786.18,533,111973,63173
211296,14556.960883683334,1671629786.18,533,111973,63173
211297,14556.977901766666,1671629786.18,531,111927,63169
211297,14556.977901766666,1671629786.18,531,111927,63169
211298,14556.99491985,1671629786.18,531,111857,63171
211298,14556.99491985,1671629786.18,531,111857,63171
211299,14557.011937933334,1671629786.18,530,111971,63211
211299,14557.011937933334,1671629786.18,530,111971,63211
211300,14557.022121019547,1671629786.18,533,112001,63209
211300,14557.030011627481,1671629786.18,533,112001,63209
211301,14557.037902235415,1671629786.18,531,112014,63204
211301,14557.04579284335,1671629786.18,531,112014,63204
211302,14557.053683451284,1671629786.273,534,112020,63175
211302,14557.061574059218,1671629786.273,534,112020,63175
211303,14557.069464667153,1671629786.273,533,112005,63180
211303,14557.077355275087,1671629786.273,533,112005,63180
211304,14557.085245883021,1671629786.273,533,111995,63187
211304,14557.093136490956,1671629786.273,533,111995,63187
211305,14557.10102709889,1671629786.273,532,112003,63210
211305,14557.108917706824,1671629786.273,532,112003,63210
211306,14557.116808314759,1671629786.273,532,111973,63192
211306,14557.124698922693,1671629786.273,532,111973,63192
211307,14557.132589530627,1671629786.273,530,111897,63145
211307,14557.140480138562,1671629786.273,530,111897,63145
211308,14557.148370746496,1671629786.353,532,111955,63155
211308,14557.15626135443,1671629786.353,532,111955,63155
211309,14557.164151962364,1671629786.353,534,111866,63156
211309,14557.172042570299,1671629786.353,534,111866,63156
211310,14557.174810090391,1671629786.353,533,111818,63126
211310,14557.181332941074,1671629786.353,533,111818,63126
211311,14557.187855791757,1671629786.353,533,111869,63123
211311,14557.19437864244,1671629786.353,533,111869,63123
211312,14557.200901493123,1671629786.353,534,111890,63123
211312,14557.207424343806,1671629786.353,534,111890,63123
211313,14557.213947194488,1671629786.353,531,111932,63122
211313,14557.220470045171,1671629786.353,531,111932,63122
211314,14557.226992895854,1671629786.457,531,111860,63115
211314,14557.233515746537,1671629786.457,531,111860,63115
211315,14557.24003859722,1671629786.457,531,111882,63127
211315,14557.246561447902,1671629786.457,531,111882,63127
211316,14557.253084298585,1671629786.457,532,111881,63109
211316,14557.259607149268,1671629786.457,532,111881,63109
211317,14557.26612999995,1671629786.457,532,111821,63088
211317,14557.272652850634,1671629786.457,532,111821,63088
211318,14557.279175701316,1671629786.457,534,111883,63098
211318,14557.285698552,1671629786.457,534,111883,63098
211319,14557.292221402682,1671629786.457,532,111800,63086
211319,14557.298744253365,1671629786.457,532,111800,63086
211320,14557.333471506043,1671629786.549,532,111889,63096
211320,14557.3415809358,1671629786.549,532,111889,63096
211321,14557.349690365556,1671629786.549,532,111800,63074
211321,14557.357799795313,1671629786.549,532,111800,63074
211322,14557.36590922507,1671629786.549,530,111845,63079
211322,14557.374018654826,1671629786.549,530,111845,63079
211323,14557.382128084582,1671629786.549,532,111873,63068
211323,14557.390237514339,1671629786.549,532,111873,63068
211324,14557.398346944095,1671629786.549,531,111815,63073
211324,14557.406456373852,1671629786.549,531,111815,63073
211325,14557.414565803609,1671629786.549,531,111762,63067
211325,14557.422675233365,1671629786.549,531,111762,63067
211326,14557.430784663122,1671629786.649,533,111884,63072
211326,14557.438894092878,1671629786.649,533,111884,63072
211327,14557.447003522635,1671629786.649,532,111875,63083
211327,14557.455112952392,1671629786.649,532,111875,63083
211328,14557.463222382148,1671629786.649,533,111899,63072
211328,14557.471331811905,1671629786.649,533,111899,63072
211329,14557.479441241661,1671629786.649,532,111890,63041
211329,14557.487550671418,1671629786.649,532,111890,63041
211330,14557.492094816704,1671629786.649,533,111828,63038
211330,14557.499862820776,1671629786.649,533,111828,63038
211331,14557.507630824848,1671629786.649,532,111847,63026
211331,14557.51539882892,1671629786.649,532,111847,63026
211332,14557.523166832993,1671629786.742,532,111820,63046
211332,14557.530934837065,1671629786.742,532,111820,63046
211333,14557.538702841137,1671629786.742,530,111787,63037
211333,14557.54647084521,1671629786.742,530,111787,63037
211334,14557.554238849281,1671629786.742,533,111795,63029
211334,14557.562006853354,1671629786.742,533,111795,63029
211335,14557.569774857426,1671629786.742,531,111894,63062
211335,14557.577542861498,1671629786.742,531,111894,63062
211336,14557.58531086557,1671629786.742,533,111782,63003
211336,14557.593078869642,1671629786.742,533,111782,63003
211337,14557.600846873715,1671629786.742,531,111757,63022
211337,14557.608614877787,1671629786.742,531,111757,63022
211338,14557.616382881859,1671629786.83,531,111868,63029
211338,14557.624150885931,1671629786.83,531,111868,63029
211339,14557.631918890003,1671629786.83,532,111763,63012
211339,14557.639686894076,1671629786.83,532,111763,63012
211340,14557.646691868076,1671629786.83,530,111847,63004
211340,14557.653717470475,1671629786.83,530,111847,63004
211341,14557.660743072875,1671629786.83,531,111843,63003
211341,14557.667768675274,1671629786.83,531,111843,63003
211342,14557.674794277673,1671629786.83,533,111793,62989
211342,14557.681819880072,1671629786.83,533,111793,62989
211343,14557.688845482471,1671629786.83,532,111896,63034
211343,14557.69587108487,1671629786.83,532,111896,63034
211344,14557.70289668727,1671629786.933,534,111885,63025
211344,14557.709922289669,1671629786.933,534,111885,63025
211345,14557.716947892068,1671629786.933,532,111742,62996
211345,14557.723973494467,1671629786.933,532,111742,62996
211346,14557.730999096866,1671629786.933,533,111846,62992
211346,14557.738024699265,1671629786.933,533,111846,62992
211347,14557.745050301664,1671629786.933,531,111812,62992
211347,14557.752075904064,1671629786.933,531,111812,62992
211348,14557.759101506463,1671629786.933,532,111865,63002
211348,14557.766127108862,1671629786.933,532,111865,63002
211349,14557.773152711261,1671629786.933,532,111929,63019
211349,14557.78017831366,1671629786.933,532,111929,63019
211350,14557.809200432026,1671629787.018,533,111863,63000
211350,14557.817170268769,1671629787.018,533,111863,63000
211351,14557.825140105511,1671629787.018,533,111856,63011
211351,14557.833109942254,1671629787.018,533,111856,63011
211352,14557.841079778997,1671629787.018,531,111940,63016
211352,14557.84904961574,1671629787.018,531,111940,63016
211353,14557.857019452482,1671629787.018,531,111881,63005
211353,14557.864989289224,1671629787.018,531,111881,63005
211354,14557.872959125967,1671629787.018,531,111874,62997
211354,14557.88092896271,1671629787.018,531,111874,62997
211355,14557.888898799452,1671629787.018,530,111932,63006
211355,14557.896868636195,1671629787.018,530,111932,63006
211356,14557.904838472938,1671629787.114,531,111864,62998
211356,14557.91280830968,1671629787.114,531,111864,62998
211357,14557.920778146423,1671629787.114,529,111988,63006
211357,14557.928747983166,1671629787.114,529,111988,63006
211358,14557.936717819908,1671629787.114,534,111920,63006
211358,14557.94468765665,1671629787.114,534,111920,63006
211359,14557.952657493393,1671629787.114,534,111866,62978
211359,14557.960627330136,1671629787.114,534,111866,62978
211360,14557.958137905414,1671629787.114,532,111989,63008
211360,14557.965635432201,1671629787.114,532,111989,63008
211361,14557.973132958989,1671629787.114,531,111882,62971
211361,14557.980630485776,1671629787.114,531,111882,62971
211362,14557.988128012563,1671629787.208,531,111891,62955
211362,14557.99562553935,1671629787.208,531,111891,62955
211363,14558.003123066137,1671629787.208,532,111805,62943
211363,14558.010620592924,1671629787.208,532,111805,62943
211364,14558.018118119711,1671629787.208,531,111742,62914
211364,14558.025615646498,1671629787.208,531,111742,62914
211365,14558.033113173286,1671629787.208,532,111819,62934
211365,14558.040610700073,1671629787.208,532,111819,62934
211366,14558.04810822686,1671629787.208,532,111747,62927
211366,14558.055605753647,1671629787.208,532,111747,62927
211367,14558.063103280434,1671629787.208,533,111692,62888
211367,14558.070600807221,1671629787.208,533,111692,62888
211368,14558.078098334008,1671629787.296,534,111709,62878
211368,14558.085595860795,1671629787.296,534,111709,62878
211369,14558.093093387582,1671629787.296,533,111723,62896
211369,14558.10059091437,1671629787.296,533,111723,62896
211370,14558.11295231761,1671629787.296,531,111750,62894
211370,14558.119920204043,1671629787.296,531,111750,62894
211371,14558.126888090475,1671629787.296,530,111743,62885
211371,14558.133855976908,1671629787.296,530,111743,62885
211372,14558.140823863341,1671629787.296,532,111715,62885
211372,14558.147791749774,1671629787.296,532,111715,62885
211373,14558.154759636207,1671629787.296,532,111746,62880
211373,14558.16172752264,1671629787.296,532,111746,62880
211374,14558.168695409073,1671629787.397,532,111751,62880
211374,14558.175663295506,1671629787.397,532,111751,62880
211375,14558.182631181939,1671629787.397,534,111727,62894
211375,14558.189599068372,1671629787.397,534,111727,62894
211376,14558.196566954804,1671629787.397,532,111729,62901
211376,14558.203534841237,1671629787.397,532,111729,62901
211377,14558.21050272767,1671629787.397,533,111701,62854
211377,14558.217470614103,1671629787.397,533,111701,62854
211378,14558.224438500536,1671629787.397,532,111665,62829
211378,14558.231406386969,1671629787.397,532,111665,62829
211379,14558.238374273402,1671629787.397,533,111705,62835
211379,14558.245342159835,1671629787.397,533,111705,62835
211380,14558.273491607813,1671629787.495,531,111685,62842
211380,14558.281398170926,1671629787.495,531,111685,62842
211381,14558.289304734039,1671629787.495,530,111727,62860
211381,14558.297211297151,1671629787.495,530,111727,62860
211382,14558.305117860264,1671629787.495,531,111736,62856
211382,14558.313024423376,1671629787.495,531,111736,62856
211383,14558.320930986489,1671629787.495,531,111724,62842
211383,14558.328837549601,1671629787.495,531,111724,62842
211384,14558.336744112714,1671629787.495,533,111593,62817
211384,14558.344650675826,1671629787.495,533,111593,62817
211385,14558.352557238939,1671629787.495,532,111622,62813
211385,14558.360463802052,1671629787.495,532,111622,62813
211386,14558.368370365164,1671629787.576,531,111644,62837
211386,14558.376276928277,1671629787.576,531,111644,62837
211387,14558.38418349139,1671629787.576,532,111625,62822
211387,14558.392090054502,1671629787.576,532,111625,62822
211388,14558.399996617614,1671629787.576,531,111600,62802
211388,14558.407903180727,1671629787.576,531,111600,62802
211389,14558.41580974384,1671629787.576,531,111704,62815
211389,14558.423716306952,1671629787.576,531,111704,62815
211390,14558.423464147452,1671629787.576,532,111604,62786
211390,14558.429832672944,1671629787.576,532,111604,62786
211391,14558.436201198436,1671629787.576,533,111629,62811
211391,14558.442569723928,1671629787.576,533,111629,62811
211392,14558.44893824942,1671629787.681,532,111654,62819
211392,14558.455306774911,1671629787.681,532,111654,62819
211393,14558.461675300403,1671629787.681,532,111709,62837
211393,14558.468043825895,1671629787.681,532,111709,62837
211394,14558.474412351386,1671629787.681,532,111639,62784
211394,14558.480780876878,1671629787.681,532,111639,62784
211395,14558.48714940237,1671629787.681,532,111613,62794
211395,14558.493517927862,1671629787.681,532,111613,62794
211396,14558.499886453354,1671629787.681,531,111593,62777
211396,14558.506254978845,1671629787.681,531,111593,62777
211397,14558.512623504337,1671629787.681,532,111655,62776
211397,14558.518992029829,1671629787.681,532,111655,62776
211398,14558.52536055532,1671629787.79,532,111642,62789
211398,14558.531729080813,1671629787.79,532,111642,62789
211399,14558.538097606304,1671629787.79,534,111611,62800
211399,14558.544466131796,1671629787.79,534,111611,62800
211400,14558.59444070285,1671629787.79,533,111614,62777
211400,14558.602861749287,1671629787.79,533,111614,62777
211401,14558.611282795724,1671629787.79,532,111702,62801
211401,14558.619703842161,1671629787.79,532,111702,62801
211402,14558.628124888599,1671629787.79,533,111669,62777
211402,14558.636545935036,1671629787.79,533,111669,62777
211403,14558.644966981474,1671629787.79,531,111786,62823
211403,14558.653388027911,1671629787.79,531,111786,62823
211404,14558.661809074349,1671629787.861,532,111737,62814
211404,14558.670230120786,1671629787.861,532,111737,62814
211405,14558.678651167224,1671629787.861,531,111813,62814
211405,14558.687072213661,1671629787.861,531,111813,62814
211406,14558.695493260098,1671629787.861,532,111699,62798
211406,14558.703914306536,1671629787.861,532,111699,62798
211407,14558.712335352973,1671629787.861,533,111642,62787
211407,14558.72075639941,1671629787.861,533,111642,62787
211408,14558.729177445848,1671629787.861,535,111715,62789
211408,14558.737598492286,1671629787.861,535,111715,62789
211409,14558.746019538723,1671629787.861,532,111704,62795
211409,14558.75444058516,1671629787.861,532,111704,62795
211410,14558.734433828962,1671629787.948,533,111733,62784
211410,14558.740012723863,1671629787.948,533,111733,62784
211411,14558.745591618765,1671629787.948,530,111804,62826
211411,14558.751170513666,1671629787.948,530,111804,62826
211412,14558.756749408567,1671629787.948,531,111772,62825
211412,14558.762328303468,1671629787.948,531,111772,62825
211413,14558.76790719837,1671629787.948,533,111790,62830
211413,14558.77348609327,1671629787.948,533,111790,62830
211414,14558.779064988172,1671629787.948,533,111783,62799
211414,14558.784643883073,1671629787.948,533,111783,62799
211415,14558.790222777974,1671629787.948,533,111718,62787
211415,14558.795801672875,1671629787.948,533,111718,62787
211416,14558.801380567777,1671629788.045,533,111789,62813
211416,14558.806959462678,1671629788.045,533,111789,62813
211417,14558.812538357579,1671629788.045,532,111681,62783
211417,14558.81811725248,1671629788.045,532,111681,62783
211418,14558.823696147381,1671629788.045,533,111578,62757
211418,14558.829275042282,1671629788.045,533,111578,62757
211419,14558.834853937184,1671629788.045,531,111676,62734
211419,14558.840432832085,1671629788.045,531,111676,62734
211420,14558.888797143441,1671629788.045,532,111663,62751
211420,14558.896296803854,1671629788.045,532,111663,62751
211421,14558.903796464267,1671629788.045,531,111576,62720
211421,14558.91129612468,1671629788.045,531,111576,62720
211422,14558.918795785092,1671629788.148,533,111598,62727
211422,14558.926295445504,1671629788.148,533,111598,62727
211423,14558.933795105917,1671629788.148,533,111640,62733
211423,14558.94129476633,1671629788.148,533,111640,62733
211424,14558.948794426742,1671629788.148,532,111551,62728
211424,14558.956294087155,1671629788.148,532,111551,62728
211425,14558.963793747567,1671629788.148,533,111571,62704
211425,14558.97129340798,1671629788.148,533,111571,62704
211426,14558.978793068392,1671629788.148,532,111553,62698
211426,14558.986292728805,1671629788.148,532,111553,62698
211427,14558.993792389218,1671629788.148,532,111571,62699
211427,14559.00129204963,1671629788.148,532,111571,62699
211428,14559.008791710043,1671629788.242,529,111565,62686
211428,14559.016291370455,1671629788.242,529,111565,62686
211429,14559.023791030868,1671629788.242,531,111589,62711
211429,14559.03129069128,1671629788.242,531,111589,62711
211430,14559.055800258831,1671629788.242,531,111535,62698
211430,14559.063370402702,1671629788.242,531,111535,62698
211431,14559.070940546573,1671629788.242,531,111549,62698
211431,14559.078510690444,1671629788.242,531,111549,62698
211432,14559.086080834315,1671629788.242,532,111453,62674
211432,14559.093650978186,1671629788.242,532,111453,62674
211433,14559.101221122057,1671629788.242,532,111504,62666
211433,14559.108791265928,1671629788.242,532,111504,62666
211434,14559.116361409799,1671629788.328,532,111487,62661
211434,14559.12393155367,1671629788.328,532,111487,62661
211435,14559.13150169754,1671629788.328,532,111480,62671
211435,14559.139071841411,1671629788.328,532,111480,62671
211436,14559.146641985282,1671629788.328,530,111385,62676
211436,14559.154212129153,1671629788.328,530,111385,62676
211437,14559.161782273024,1671629788.328,530,111568,62675
211437,14559.169352416895,1671629788.328,530,111568,62675
211438,14559.176922560766,1671629788.328,532,111492,62642
211438,14559.184492704637,1671629788.328,532,111492,62642
211439,14559.192062848508,1671629788.328,531,111471,62670
211439,14559.199632992379,1671629788.328,531,111471,62670
211440,14559.202945671568,1671629788.419,533,111407,62648
211440,14559.209636504906,1671629788.419,533,111407,62648
211441,14559.216327338243,1671629788.419,533,111452,62641
211441,14559.22301817158,1671629788.419,533,111452,62641
211442,14559.229709004918,1671629788.419,532,111473,62655
211442,14559.236399838255,1671629788.419,532,111473,62655
211443,14559.243090671593,1671629788.419,531,111441,62646
211443,14559.24978150493,1671629788.419,531,111441,62646
211444,14559.256472338267,1671629788.419,531,111532,62672
211444,14559.263163171605,1671629788.419,531,111532,62672
211445,14559.269854004942,1671629788.419,530,111490,62640
211445,14559.27654483828,1671629788.419,530,111490,62640
211446,14559.283235671617,1671629788.513,531,111505,62665
211446,14559.289926504955,1671629788.513,531,111505,62665
211447,14559.296617338292,1671629788.513,531,111484,62626
211447,14559.30330817163,1671629788.513,531,111484,62626
211448,14559.309999004967,1671629788.513,533,111538,62656
211448,14559.316689838304,1671629788.513,533,111538,62656
211449,14559.323380671642,1671629788.513,532,111493,62632
211449,14559.330071504979,1671629788.513,532,111493,62632
211450,14559.357104945395,1671629788.513,533,111390,62628
211450,14559.364427781944,1671629788.513,533,111390,62628
211451,14559.371750618493,1671629788.513,533,111466,62638
211451,14559.379073455042,1671629788.513,533,111466,62638
211452,14559.386396291591,1671629788.617,531,111475,62621
211452,14559.39371912814,1671629788.617,531,111475,62621
211453,14559.40104196469,1671629788.617,529,111479,62633
211453,14559.408364801238,1671629788.617,529,111479,62633
211454,14559.415687637787,1671629788.617,530,111512,62630
211454,14559.423010474336,1671629788.617,530,111512,62630
211455,14559.430333310886,1671629788.617,531,111456,62639
211455,14559.437656147435,1671629788.617,531,111456,62639
211456,14559.444978983984,1671629788.617,533,111435,62612
211456,14559.452301820533,1671629788.617,533,111435,62612
211457,14559.459624657082,1671629788.617,533,111383,62628
211457,14559.46694749363,1671629788.617,533,111383,62628
211458,14559.47427033018,1671629788.705,531,111472,62632
211458,14559.481593166729,1671629788.705,531,111472,62632
211459,14559.488916003278,1671629788.705,532,111535,62633
211459,14559.496238839827,1671629788.705,532,111535,62633
211460,14559.52244750107,1671629788.705,532,111484,62632
211460,14559.529728260868,1671629788.705,532,111484,62632
211461,14559.537009020667,1671629788.705,530,111535,62631
211461,14559.544289780466,1671629788.705,530,111535,62631
211462,14559.551570540265,1671629788.705,530,111560,62645
211462,14559.558851300064,1671629788.705,530,111560,62645
211463,14559.566132059863,1671629788.705,531,111518,62627
211463,14559.573412819662,1671629788.705,531,111518,62627
211464,14559.58069357946,1671629788.794,533,111499,62630
211464,14559.58797433926,1671629788.794,533,111499,62630
211465,14559.595255099059,1671629788.794,534,111421,62634
211465,14559.602535858858,1671629788.794,534,111421,62634
211466,14559.609816618657,1671629788.794,532,111460,62628
211466,14559.617097378456,1671629788.794,532,111460,62628
211467,14559.624378138255,1671629788.794,531,111503,62651
211467,14559.631658898054,1671629788.794,531,111503,62651
211468,14559.638939657852,1671629788.794,530,111501,62634
211468,14559.646220417651,1671629788.794,530,111501,62634
211469,14559.65350117745,1671629788.794,531,111530,62633
211469,14559.66078193725,1671629788.794,531,111530,62633
211470,14559.66938310101,1671629788.885,531,111565,62633
211470,14559.67630563111,1671629788.885,531,111565,62633
211471,14559.68322816121,1671629788.885,530,111589,62660
211471,14559.69015069131,1671629788.885,530,111589,62660
211472,14559.697073221409,1671629788.885,532,111615,62686
211472,14559.703995751508,1671629788.885,532,111615,62686
211473,14559.710918281608,1671629788.885,532,111574,62645
211473,14559.717840811707,1671629788.885,532,111574,62645
211474,14559.724763341806,1671629788.885,532,111501,62619
211474,14559.731685871906,1671629788.885,532,111501,62619
211475,14559.738608402005,1671629788.885,532,111540,62607
211475,14559.745530932105,1671629788.885,532,111540,62607
211476,14559.752453462204,1671629788.992,530,111447,62605
211476,14559.759375992304,1671629788.992,530,111447,62605
211477,14559.766298522403,1671629788.992,532,111376,62572
211477,14559.773221052503,1671629788.992,532,111376,62572
211478,14559.780143582602,1671629788.992,531,111465,62596
211478,14559.787066112702,1671629788.992,531,111465,62596
211479,14559.793988642801,1671629788.992,532,111358,62569
211479,14559.8009111729,1671629788.992,532,111358,62569
211480,14559.833444533984,1671629788.992,532,111349,62580
211480,14559.841696012267,1671629788.992,532,111349,62580
211481,14559.84994749055,1671629788.992,532,111303,62582
211481,14559.858198968832,1671629788.992,532,111303,62582
211482,14559.866450447114,1671629789.082,532,111333,62583
211482,14559.874701925397,1671629789.082,532,111333,62583
211483,14559.88295340368,1671629789.082,532,111395,62583
211483,14559.891204881962,1671629789.082,532,111395,62583
211484,14559.899456360245,1671629789.082,530,111403,62572
211484,14559.907707838527,1671629789.082,530,111403,62572
211485,14559.91595931681,1671629789.082,530,111359,62580
211485,14559.924210795092,1671629789.082,530,111359,62580
211486,14559.932462273375,1671629789.082,531,111218,62550
211486,14559.940713751657,1671629789.082,531,111218,62550
211487,14559.94896522994,1671629789.082,531,111336,62558
211487,14559.957216708222,1671629789.082,531,111336,62558
211488,14559.965468186505,1671629789.191,531,111321,62561
211488,14559.973719664787,1671629789.191,531,111321,62561
211489,14559.98197114307,1671629789.191,532,111267,62541
211489,14559.990222621353,1671629789.191,532,111267,62541
211490,14559.99450450692,1671629789.191,531,111358,62559
211490,14560.002568589367,1671629789.191,531,111358,62559
211491,14560.010632671814,1671629789.191,531,111293,62564
211491,14560.018696754261,1671629789.191,531,111293,62564
211492,14560.026760836708,1671629789.191,531,111237,62531
211492,14560.034824919156,1671629789.191,531,111237,62531
211493,14560.042889001603,1671629789.191,531,111236,62533
211493,14560.05095308405,1671629789.191,531,111236,62533
211494,14560.059017166497,1671629789.287,530,111224,62533
211494,14560.067081248944,1671629789.287,530,111224,62533
211495,14560.075145331391,1671629789.287,531,111309,62533
211495,14560.083209413839,1671629789.287,531,111309,62533
211496,14560.091273496286,1671629789.287,532,111274,62543
211496,14560.099337578733,1671629789.287,532,111274,62543
211497,14560.10740166118,1671629789.287,533,111215,62543
211497,14560.115465743627,1671629789.287,533,111215,62543
211498,14560.123529826074,1671629789.287,534,111235,62520
211498,14560.131593908522,1671629789.287,534,111235,62520
211499,14560.139657990969,1671629789.287,532,111178,62502
211499,14560.147722073416,1671629789.287,532,111178,62502
211500,14560.163188669532,1671629789.366,531,111146,62517
211500,14560.170737647968,1671629789.366,531,111146,62517
211501,14560.178286626404,1671629789.366,530,111297,62538
211501,14560.18583560484,1671629789.366,530,111297,62538
211502,14560.193384583275,1671629789.366,531,111225,62519
211502,14560.200933561711,1671629789.366,531,111225,62519
211503,14560.208482540147,1671629789.366,532,111257,62494
211503,14560.216031518583,1671629789.366,532,111257,62494
211504,14560.223580497019,1671629789.366,529,111275,62522
211504,14560.231129475455,1671629789.366,529,111275,62522
211505,14560.23867845389,1671629789.366,531,111242,62517
211505,14560.246227432326,1671629789.366,531,111242,62517
211506,14560.253776410762,1671629789.453,531,111273,62530
211506,14560.261325389198,1671629789.453,531,111273,62530
211507,14560.268874367634,1671629789.453,533,111235,62517
211507,14560.27642334607,1671629789.453,533,111235,62517
211508,14560.283972324505,1671629789.453,530,111262,62514
211508,14560.291521302941,1671629789.453,530,111262,62514
211509,14560.299070281377,1671629789.453,530,111282,62514
211509,14560.306619259813,1671629789.453,530,111282,62514
211510,14560.298696225615,1671629789.453,529,111296,62531
211510,14560.305428144182,1671629789.453,529,111296,62531
211511,14560.31216006275,1671629789.453,531,111214,62490
211511,14560.318891981316,1671629789.453,531,111214,62490
211512,14560.325623899884,1671629789.55,530,111290,62508
211512,14560.332355818451,1671629789.55,530,111290,62508
211513,14560.339087737018,1671629789.55,532,111234,62512
211513,14560.345819655586,1671629789.55,532,111234,62512
211514,14560.352551574153,1671629789.55,532,111246,62524
211514,14560.35928349272,1671629789.55,532,111246,62524
211515,14560.366015411288,1671629789.55,531,111300,62517
211515,14560.372747329855,1671629789.55,531,111300,62517
211516,14560.379479248422,1671629789.55,531,111238,62528
211516,14560.38621116699,1671629789.55,531,111238,62528
211517,14560.392943085557,1671629789.55,529,111195,62501
211517,14560.399675004124,1671629789.55,529,111195,62501
211518,14560.406406922692,1671629789.637,529,111276,62523
211518,14560.413138841259,1671629789.637,529,111276,62523
211519,14560.419870759826,1671629789.637,531,111275,62527
211519,14560.426602678393,1671629789.637,531,111275,62527
211520,14560.454292565353,1671629789.637,533,111163,62532
211520,14560.461314438,1671629789.637,533,111163,62532
211521,14560.468336310647,1671629789.637,531,111318,62551
211521,14560.475358183294,1671629789.637,531,111318,62551
211522,14560.48238005594,1671629789.637,532,111296,62546
211522,14560.489401928588,1671629789.637,532,111296,62546
211523,14560.496423801234,1671629789.637,532,111355,62561
211523,14560.503445673881,1671629789.637,532,111355,62561
211524,14560.510467546528,1671629789.742,531,111334,62544
211524,14560.517489419175,1671629789.742,531,111334,62544
211525,14560.524511291822,1671629789.742,530,111398,62556
211525,14560.531533164469,1671629789.742,530,111398,62556
211526,14560.538555037116,1671629789.742,530,111339,62554
211526,14560.545576909763,1671629789.742,530,111339,62554
211527,14560.55259878241,1671629789.742,531,111359,62557
211527,14560.559620655056,1671629789.742,531,111359,62557
211528,14560.566642527703,1671629789.742,531,111313,62528
211528,14560.57366440035,1671629789.742,531,111313,62528
211529,14560.580686272997,1671629789.742,532,111192,62525
211529,14560.587708145644,1671629789.742,532,111192,62525
211530,14560.618601493314,1671629789.831,532,111259,62505
211530,14560.626795224875,1671629789.831,532,111259,62505
211531,14560.634988956435,1671629789.831,533,111254,62518
211531,14560.643182687996,1671629789.831,533,111254,62518
211532,14560.651376419557,1671629789.831,530,111226,62511
211532,14560.659570151118,1671629789.831,530,111226,62511
211533,14560.667763882679,1671629789.831,530,111188,62498
211533,14560.67595761424,1671629789.831,530,111188,62498
211534,14560.6841513458,1671629789.831,529,111194,62482
211534,14560.692345077361,1671629789.831,529,111194,62482
211535,14560.700538808922,1671629789.831,530,111091,62474
211535,14560.708732540483,1671629789.831,530,111091,62474
211536,14560.716926272044,1671629789.919,530,111180,62509
211536,14560.725120003604,1671629789.919,530,111180,62509
211537,14560.733313735165,1671629789.919,533,111037,62467
211537,14560.741507466726,1671629789.919,533,111037,62467
211538,14560.749701198287,1671629789.919,533,111034,62454
211538,14560.757894929848,1671629789.919,533,111034,62454
211539,14560.766088661409,1671629789.919,531,111090,62486
211539,14560.77428239297,1671629789.919,531,111090,62486
211540,14560.764957518239,1671629789.919,532,111012,62465
211540,14560.771822724693,1671629789.919,532,111012,62465
211541,14560.778687931148,1671629789.919,532,111018,62451
211541,14560.785553137603,1671629789.919,532,111018,62451
211542,14560.792418344057,1671629790.023,530,111000,62449
211542,14560.799283550512,1671629790.023,530,111000,62449
211543,14560.806148756967,1671629790.023,531,110941,62446
211543,14560.813013963421,1671629790.023,531,110941,62446
211544,14560.819879169876,1671629790.023,533,111051,62454
211544,14560.82674437633,1671629790.023,533,111051,62454
211545,14560.833609582785,1671629790.023,531,111049,62463
211545,14560.84047478924,1671629790.023,531,111049,62463
211546,14560.847339995695,1671629790.023,532,110974,62451
211546,14560.85420520215,1671629790.023,532,110974,62451
211547,14560.861070408604,1671629790.023,532,111099,62451
211547,14560.867935615059,1671629790.023,532,111099,62451
211548,14560.874800821513,1671629790.118,533,111010,62437
211548,14560.881666027968,1671629790.118,533,111010,62437
211549,14560.888531234423,1671629790.118,531,111041,62464
211549,14560.895396440877,1671629790.118,531,111041,62464
211550,14560.931078679787,1671629790.118,530,111128,62473
211550,14560.938684950983,1671629790.118,530,111128,62473
211551,14560.946291222179,1671629790.118,531,111073,62458
211551,14560.953897493375,1671629790.118,531,111073,62458
211552,14560.96150376457,1671629790.118,532,111044,62448
211552,14560.969110035767,1671629790.118,532,111044,62448
211553,14560.976716306963,1671629790.118,531,111053,62441
211553,14560.984322578159,1671629790.118,531,111053,62441
211554,14560.991928849355,1671629790.212,532,111018,62425
211554,14560.99953512055,1671629790.212,532,111018,62425
211555,14561.007141391747,1671629790.212,532,110933,62420
211555,14561.014747662943,1671629790.212,532,110933,62420
211556,14561.022353934139,1671629790.212,532,110959,62426
211556,14561.029960205335,1671629790.212,532,110959,62426
211557,14561.03756647653,1671629790.212,532,111040,62444
211557,14561.045172747727,1671629790.212,532,111040,62444
211558,14561.052779018923,1671629790.212,529,111068,62453
211558,14561.060385290119,1671629790.212,529,111068,62453
211559,14561.067991561315,1671629790.212,532,110913,62399
211559,14561.07559783251,1671629790.212,532,110913,62399
211560,14561.087445328092,1671629790.294,531,111084,62439
211560,14561.094779090978,1671629790.294,531,111084,62439
211561,14561.102112853863,1671629790.294,532,111032,62431
211561,14561.109446616749,1671629790.294,532,111032,62431
211562,14561.116780379634,1671629790.294,533,111094,62458
211562,14561.12411414252,1671629790.294,533,111094,62458
211563,14561.131447905405,1671629790.294,532,111052,62438
211563,14561.13878166829,1671629790.294,532,111052,62438
211564,14561.146115431176,1671629790.294,533,110944,62418
211564,14561.153449194062,1671629790.294,533,110944,62418
211565,14561.160782956948,1671629790.294,532,110986,62434
211565,14561.168116719833,1671629790.294,532,110986,62434
211566,14561.175450482719,1671629790.397,531,111025,62446
211566,14561.182784245604,1671629790.397,531,111025,62446
211567,14561.19011800849,1671629790.397,529,111037,62440
211567,14561.197451771375,1671629790.397,529,111037,62440
211568,14561.20478553426,1671629790.397,531,111030,62461
211568,14561.212119297146,1671629790.397,531,111030,62461
211569,14561.219453060032,1671629790.397,531,111006,62455
211569,14561.226786822917,1671629790.397,531,111006,62455
211570,14561.239254611935,1671629790.397,533,110928,62425
211570,14561.24722635093,1671629790.397,533,110928,62425
211571,14561.255198089924,1671629790.397,532,111051,62458
211571,14561.263169828919,1671629790.397,532,111051,62458
211572,14561.271141567913,1671629790.492,532,111146,62477
211572,14561.279113306908,1671629790.492,532,111146,62477
211573,14561.287085045902,1671629790.492,533,111007,62457
211573,14561.295056784897,1671629790.492,533,111007,62457
211574,14561.303028523891,1671629790.492,532,111047,62452
211574,14561.311000262885,1671629790.492,532,111047,62452
211575,14561.31897200188,1671629790.492,530,111065,62461
211575,14561.326943740874,1671629790.492,530,111065,62461
211576,14561.334915479869,1671629790.492,531,111050,62458
211576,14561.342887218863,1671629790.492,531,111050,62458
211577,14561.350858957858,1671629790.492,530,111172,62485
211577,14561.358830696852,1671629790.492,530,111172,62485
211578,14561.366802435847,1671629790.576,532,111134,62469
211578,14561.374774174841,1671629790.576,532,111134,62469
211579,14561.382745913836,1671629790.576,532,111158,62494
211579,14561.39071765283,1671629790.576,532,111158,62494
211580,14561.395210404777,1671629790.576,532,111150,62501
211580,14561.402007944132,1671629790.576,532,111150,62501
211581,14561.408805483488,1671629790.576,531,111170,62473
211581,14561.415603022844,1671629790.576,531,111170,62473
211582,14561.4224005622,1671629790.576,531,111112,62492
211582,14561.429198101556,1671629790.576,531,111112,62492
211583,14561.435995640912,1671629790.576,532,111076,62465
211583,14561.442793180267,1671629790.576,532,111076,62465
211584,14561.449590719623,1671629790.678,530,111026,62468
211584,14561.45638825898,1671629790.678,530,111026,62468
211585,14561.463185798335,1671629790.678,529,111108,62482
211585,14561.46998333769,1671629790.678,529,111108,62482
211586,14561.476780877047,1671629790.678,532,110884,62434
211586,14561.483578416402,1671629790.678,532,110884,62434
211587,14561.490375955758,1671629790.678,531,110997,62454
211587,14561.497173495114,1671629790.678,531,110997,62454
211588,14561.50397103447,1671629790.678,531,110874,62415
211588,14561.510768573826,1671629790.678,531,110874,62415
211589,14561.517566113182,1671629790.678,534,110903,62416
211589,14561.524363652537,1671629790.678,534,110903,62416
211590,14561.554540719522,1671629790.833,532,110868,62408
211590,14561.562510644228,1671629790.833,532,110868,62408
211591,14561.570480568933,1671629790.833,532,110860,62390
211591,14561.578450493638,1671629790.833,532,110860,62390
211592,14561.586420418344,1671629790.833,532,110881,62397
211592,14561.594390343049,1671629790.833,532,110881,62397
211593,14561.602360267754,1671629790.833,532,110876,62392
211593,14561.61033019246,1671629790.833,532,110876,62392
211594,14561.618300117165,1671629790.833,532,110840,62402
211594,14561.62627004187,1671629790.833,532,110840,62402
211595,14561.634239966575,1671629790.833,532,110774,62424
211595,14561.64220989128,1671629790.833,532,110774,62424
211596,14561.650179815986,1671629790.86,533,110792,62402
211596,14561.658149740691,1671629790.86,533,110792,62402
211597,14561.666119665397,1671629790.86,531,110813,62427
211597,14561.674089590102,1671629790.86,531,110813,62427
211598,14561.682059514807,1671629790.86,530,110753,62382
211598,14561.690029439513,1671629790.86,530,110753,62382
211599,14561.697999364218,1671629790.86,530,110878,62413
211599,14561.705969288923,1671629790.86,530,110878,62413
211600,14561.72112500313,1671629790.86,529,110770,62403
211600,14561.7238295445,1671629790.86,529,110770,62403
211601,14561.72653408587,1671629790.86,530,110857,62408
211601,14561.72923862724,1671629790.86,530,110857,62408
211602,14561.73194316861,1671629790.959,533,110744,62386
211602,14561.73464770998,1671629790.959,533,110744,62386
211603,14561.73735225135,1671629790.959,531,110822,62391
211603,14561.74005679272,1671629790.959,531,110822,62391
211604,14561.74276133409,1671629790.959,531,110747,62382
211604,14561.74546587546,1671629790.959,531,110747,62382
211605,14561.74817041683,1671629790.959,531,110796,62382
211605,14561.7508749582,1671629790.959,531,110796,62382
211606,14561.75357949957,1671629790.959,531,110789,62399
211606,14561.75628404094,1671629790.959,531,110789,62399
211607,14561.758988582309,1671629790.959,530,110812,62400
211607,14561.761693123679,1671629790.959,530,110812,62400
211608,14561.764397665049,1671629791.044,530,110739,62390
211608,14561.767102206419,1671629791.044,530,110739,62390
211609,14561.769806747789,1671629791.044,533,110694,62364
211609,14561.772511289159,1671629791.044,533,110694,62364
211610,14561.862898634186,1671629791.044,532,110781,62373
211610,14561.869831212694,1671629791.044,532,110781,62373
211611,14561.876763791202,1671629791.044,533,110782,62385
211611,14561.88369636971,1671629791.044,533,110782,62385
211612,14561.890628948218,1671629791.044,532,110736,62361
211612,14561.897561526726,1671629791.044,532,110736,62361
211613,14561.904494105234,1671629791.044,531,110754,62371
211613,14561.911426683742,1671629791.044,531,110754,62371
211614,14561.91835926225,1671629791.142,531,110658,62365
211614,14561.925291840758,1671629791.142,531,110658,62365
211615,14561.932224419266,1671629791.142,530,110762,62381
211615,14561.939156997774,1671629791.142,530,110762,62381
211616,14561.946089576282,1671629791.142,531,110751,62376
211616,14561.95302215479,1671629791.142,531,110751,62376
211617,14561.959954733298,1671629791.142,532,110725,62381
211617,14561.966887311806,1671629791.142,532,110725,62381
211618,14561.973819890314,1671629791.142,531,110663,62375
211618,14561.980752468822,1671629791.142,531,110663,62375
211619,14561.98768504733,1671629791.142,533,110644,62378
211619,14561.994617625838,1671629791.142,533,110644,62378
211620,14562.018447038188,1671629791.24,533,110732,62364
211620,14562.026132292112,1671629791.24,533,110732,62364
211621,14562.033817546037,1671629791.24,532,110697,62373
211621,14562.04150279996,1671629791.24,532,110697,62373
211622,14562.049188053885,1671629791.24,533,110717,62369
211622,14562.056873307809,1671629791.24,533,110717,62369
211623,14562.064558561733,1671629791.24,531,110771,62425
211623,14562.072243815657,1671629791.24,531,110771,62425
211624,14562.079929069581,1671629791.24,529,110800,62403
211624,14562.087614323505,1671629791.24,529,110800,62403
211625,14562.09529957743,1671629791.24,530,110727,62386
211625,14562.102984831354,1671629791.24,530,110727,62386
211626,14562.110670085278,1671629791.327,530,110805,62403
211626,14562.118355339202,1671629791.327,530,110805,62403
211627,14562.126040593126,1671629791.327,532,110777,62421
211627,14562.13372584705,1671629791.327,532,110777,62421
211628,14562.141411100974,1671629791.327,531,110677,62406
211628,14562.149096354899,1671629791.327,531,110677,62406
211629,14562.156781608823,1671629791.327,530,110831,62433
211629,14562.164466862747,1671629791.327,530,110831,62433
211630,14562.172967447585,1671629791.327,530,110836,62420
211630,14562.179797534489,1671629791.327,530,110836,62420
211631,14562.186627621393,1671629791.327,529,110794,62439
211631,14562.193457708298,1671629791.327,529,110794,62439
211632,14562.200287795202,1671629791.419,531,110816,62436
211632,14562.207117882106,1671629791.419,531,110816,62436
211633,14562.21394796901,1671629791.419,531,110801,62439
211633,14562.220778055915,1671629791.419,531,110801,62439
211634,14562.227608142819,1671629791.419,532,110883,62445
211634,14562.234438229723,1671629791.419,532,110883,62445
211635,14562.241268316628,1671629791.419,532,110892,62451
211635,14562.248098403532,1671629791.419,532,110892,62451
211636,14562.254928490436,1671629791.419,532,110910,62455
211636,14562.26175857734,1671629791.419,532,110910,62455
211637,14562.268588664245,1671629791.419,533,110723,62429
211637,14562.27541875115,1671629791.419,533,110723,62429
211638,14562.282248838053,1671629791.522,532,110778,62471
211638,14562.289078924958,1671629791.522,532,110778,62471
211639,14562.295909011862,1671629791.522,533,110824,62451
211639,14562.302739098766,1671629791.522,533,110824,62451
211640,14562.329469682767,1671629791.522,531,110787,62447
211640,14562.337240164776,1671629791.522,531,110787,62447
211641,14562.345010646784,1671629791.522,531,110831,62469
211641,14562.352781128793,1671629791.522,531,110831,62469
211642,14562.360551610802,1671629791.522,532,110807,62436
211642,14562.36832209281,1671629791.522,532,110807,62436
211643,14562.37609257482,1671629791.522,533,110784,62444
211643,14562.383863056828,1671629791.522,533,110784,62444
211644,14562.391633538837,1671629791.611,533,110700,62418
211644,14562.399404020845,1671629791.611,533,110700,62418
211645,14562.407174502854,1671629791.611,531,110771,62454
211645,14562.414944984863,1671629791.611,531,110771,62454
211646,14562.422715466872,1671629791.611,531,110727,62449
211646,14562.43048594888,1671629791.611,531,110727,62449
211647,14562.438256430889,1671629791.611,531,110625,62410
211647,14562.446026912898,1671629791.611,531,110625,62410
211648,14562.453797394906,1671629791.611,531,110586,62409
211648,14562.461567876915,1671629791.611,531,110586,62409
211649,14562.469338358924,1671629791.611,532,110610,62403
211649,14562.477108840932,1671629791.611,532,110610,62403
211650,14562.486431148744,1671629791.7,530,110609,62407
211650,14562.493434265536,1671629791.7,530,110609,62407
211651,14562.500437382329,1671629791.7,533,110562,62390
211651,14562.507440499121,1671629791.7,533,110562,62390
211652,14562.514443615913,1671629791.7,534,110507,62407
211652,14562.521446732706,1671629791.7,534,110507,62407
211653,14562.528449849498,1671629791.7,533,110495,62395
211653,14562.53545296629,1671629791.7,533,110495,62395
211654,14562.542456083083,1671629791.7,532,110572,62408
211654,14562.549459199876,1671629791.7,532,110572,62408
211655,14562.556462316668,1671629791.7,532,110472,62387
211655,14562.56346543346,1671629791.7,532,110472,62387
211656,14562.570468550253,1671629791.794,531,110518,62408
211656,14562.577471667046,1671629791.794,531,110518,62408
211657,14562.584474783838,1671629791.794,530,110527,62394
211657,14562.59147790063,1671629791.794,530,110527,62394
211658,14562.598481017423,1671629791.794,532,110433,62353
211658,14562.605484134216,1671629791.794,532,110433,62353
211659,14562.612487251008,1671629791.794,532,110487,62397
211659,14562.6194903678,1671629791.794,532,110487,62397
211660,14562.638434815903,1671629791.794,533,110430,62343
211660,14562.645772201993,1671629791.794,533,110430,62343
211661,14562.653109588084,1671629791.794,532,110446,62386
211661,14562.660446974174,1671629791.794,532,110446,62386
211662,14562.667784360265,1671629791.897,532,110428,62373
211662,14562.675121746355,1671629791.897,532,110428,62373
211663,14562.682459132446,1671629791.897,531,110458,62381
211663,14562.689796518536,1671629791.897,531,110458,62381
211664,14562.697133904627,1671629791.897,530,110496,62382
211664,14562.704471290717,1671629791.897,530,110496,62382
211665,14562.711808676808,1671629791.897,529,110526,62389
211665,14562.719146062898,1671629791.897,529,110526,62389
211666,14562.726483448989,1671629791.897,532,110415,62363
211666,14562.73382083508,1671629791.897,532,110415,62363
211667,14562.74115822117,1671629791.897,531,110471,62395
211667,14562.74849560726,1671629791.897,531,110471,62395
211668,14562.75583299335,1671629791.993,532,110403,62382
211668,14562.763170379441,1671629791.993,532,110403,62382
211669,14562.770507765532,1671629791.993,532,110417,62391
211669,14562.777845151622,1671629791.993,532,110417,62391
211670,14562.805422912357,1671629791.993,531,110480,62408
211670,14562.813061303528,1671629791.993,531,110480,62408
211671,14562.8206996947,1671629791.993,532,110385,62367
211671,14562.82833808587,1671629791.993,532,110385,62367
211672,14562.835976477041,1671629791.993,530,110461,62392
211672,14562.843614868212,1671629791.993,530,110461,62392
211673,14562.851253259383,1671629791.993,530,110444,62410
211673,14562.858891650554,1671629791.993,530,110444,62410
211674,14562.866530041725,1671629792.077,530,110444,62372
211674,14562.874168432896,1671629792.077,530,110444,62372
211675,14562.881806824067,1671629792.077,531,110468,62407
211675,14562.889445215238,1671629792.077,531,110468,62407
211676,14562.897083606409,1671629792.077,532,110396,62372
211676,14562.90472199758,1671629792.077,532,110396,62372
211677,14562.912360388751,1671629792.077,531,110390,62377
211677,14562.919998779922,1671629792.077,531,110390,62377
211678,14562.927637171093,1671629792.077,532,110421,62393
211678,14562.935275562264,1671629792.077,532,110421,62393
211679,14562.942913953435,1671629792.077,532,110407,62384
211679,14562.950552344606,1671629792.077,532,110407,62384
211680,14562.952389225991,1671629792.177,532,110416,62412
211680,14562.959016406978,1671629792.177,532,110416,62412
211681,14562.965643587964,1671629792.177,530,110450,62408
211681,14562.97227076895,1671629792.177,530,110450,62408
211682,14562.978897949937,1671629792.177,532,110406,62401
211682,14562.985525130924,1671629792.177,532,110406,62401
211683,14562.99215231191,1671629792.177,532,110454,62432
211683,14562.998779492897,1671629792.177,532,110454,62432
211684,14563.005406673883,1671629792.177,532,110476,62409
211684,14563.01203385487,1671629792.177,532,110476,62409
211685,14563.018661035856,1671629792.177,532,110411,62428
211685,14563.025288216842,1671629792.177,532,110411,62428
211686,14563.031915397829,1671629792.276,532,110518,62428
211686,14563.038542578815,1671629792.276,532,110518,62428
211687,14563.045169759802,1671629792.276,531,110553,62440
211687,14563.051796940788,1671629792.276,531,110553,62440
211688,14563.058424121775,1671629792.276,531,110468,62449
211688,14563.065051302761,1671629792.276,531,110468,62449
211689,14563.071678483748,1671629792.276,530,110436,62424
211689,14563.078305664734,1671629792.276,530,110436,62424
211690,14563.11929672447,1671629792.276,531,110431,62440
211690,14563.126995439714,1671629792.276,531,110431,62440
211691,14563.134694154958,1671629792.276,533,110457,62448
211691,14563.142392870202,1671629792.276,533,110457,62448
211692,14563.150091585447,1671629792.367,531,110502,62465
211692,14563.157790300691,1671629792.367,531,110502,62465
211693,14563.165489015935,1671629792.367,532,110485,62462
211693,14563.17318773118,1671629792.367,532,110485,62462
211694,14563.180886446424,1671629792.367,533,110448,62451
211694,14563.188585161668,1671629792.367,533,110448,62451
211695,14563.196283876912,1671629792.367,531,110589,62492
211695,14563.203982592157,1671629792.367,531,110589,62492
211696,14563.2116813074,1671629792.367,531,110519,62483
211696,14563.219380022645,1671629792.367,531,110519,62483
211697,14563.22707873789,1671629792.367,533,110429,62465
211697,14563.234777453134,1671629792.367,533,110429,62465
211698,14563.242476168378,1671629792.452,530,110569,62507
211698,14563.250174883622,1671629792.452,530,110569,62507
211699,14563.257873598866,1671629792.452,531,110561,62520
211699,14563.26557231411,1671629792.452,531,110561,62520
211700,14563.270534247056,1671629792.452,532,110560,62522
211700,14563.27733252253,1671629792.452,532,110560,62522
211701,14563.284130798003,1671629792.452,533,110552,62523
211701,14563.290929073477,1671629792.452,533,110552,62523
211702,14563.29772734895,1671629792.452,533,110578,62512
211702,14563.304525624424,1671629792.452,533,110578,62512
211703,14563.311323899898,1671629792.452,532,110531,62499
211703,14563.318122175371,1671629792.452,532,110531,62499
211704,14563.324920450845,1671629792.554,531,110425,62506
211704,14563.331718726318,1671629792.554,531,110425,62506
211705,14563.338517001792,1671629792.554,531,110388,62470
211705,14563.345315277265,1671629792.554,531,110388,62470
211706,14563.352113552739,1671629792.554,531,110357,62454
211706,14563.358911828213,1671629792.554,531,110357,62454
211707,14563.365710103686,1671629792.554,532,110410,62478
211707,14563.37250837916,1671629792.554,532,110410,62478
211708,14563.379306654633,1671629792.554,532,110298,62452
211708,14563.386104930107,1671629792.554,532,110298,62452
211709,14563.39290320558,1671629792.554,532,110330,62445
211709,14563.399701481054,1671629792.554,532,110330,62445
211710,14563.43017505066,1671629792.657,532,110312,62455
211710,14563.438086027845,1671629792.657,532,110312,62455
211711,14563.44599700503,1671629792.657,531,110300,62478
211711,14563.453907982215,1671629792.657,531,110300,62478
211712,14563.4618189594,1671629792.657,532,110287,62467
211712,14563.469729936585,1671629792.657,532,110287,62467
211713,14563.47764091377,1671629792.657,531,110266,62452
211713,14563.485551890955,1671629792.657,531,110266,62452
211714,14563.49346286814,1671629792.657,530,110306,62460
211714,14563.501373845325,1671629792.657,530,110306,62460
211715,14563.50928482251,1671629792.657,531,110245,62443
211715,14563.517195799695,1671629792.657,531,110245,62443
211716,14563.52510677688,1671629792.738,532,110288,62461
211716,14563.533017754065,1671629792.738,532,110288,62461
211717,14563.54092873125,1671629792.738,532,110233,62415
211717,14563.548839708435,1671629792.738,532,110233,62415
211718,14563.55675068562,1671629792.738,532,110253,62453
211718,14563.564661662806,1671629792.738,532,110253,62453
211719,14563.57257263999,1671629792.738,532,110308,62451
211719,14563.580483617176,1671629792.738,532,110308,62451
211720,14563.586023650509,1671629792.738,530,110317,62465
211720,14563.592508684309,1671629792.738,530,110317,62465
211721,14563.59899371811,1671629792.738,532,110253,62466
211721,14563.60547875191,1671629792.738,532,110253,62466
211722,14563.61196378571,1671629792.835,530,110192,62445
211722,14563.61844881951,1671629792.835,530,110192,62445
211723,14563.62493385331,1671629792.835,530,110189,62454
211723,14563.631418887111,1671629792.835,530,110189,62454
211724,14563.637903920911,1671629792.835,531,110094,62428
211724,14563.644388954712,1671629792.835,531,110094,62428
211725,14563.650873988512,1671629792.835,532,110172,62430
211725,14563.657359022312,1671629792.835,532,110172,62430
211726,14563.663844056113,1671629792.835,532,110162,62439
211726,14563.670329089913,1671629792.835,532,110162,62439
211727,14563.676814123713,1671629792.835,532,110199,62452
211727,14563.683299157514,1671629792.835,532,110199,62452
211728,14563.689784191314,1671629792.919,532,110165,62440
211728,14563.696269225115,1671629792.919,532,110165,62440
211729,14563.702754258915,1671629792.919,529,110200,62440
211729,14563.709239292715,1671629792.919,529,110200,62440
211730,14563.73810332763,1671629792.919,531,110135,62424
211730,14563.744959230751,1671629792.919,531,110135,62424
211731,14563.751815133872,1671629792.919,531,110138,62444
211731,14563.758671036992,1671629792.919,531,110138,62444
211732,14563.765526940113,1671629792.919,531,110145,62441
211732,14563.772382843234,1671629792.919,531,110145,62441
211733,14563.779238746354,1671629792.919,534,110027,62429
211733,14563.786094649475,1671629792.919,534,110027,62429
211734,14563.792950552595,1671629793.014,533,110122,62449
211734,14563.799806455716,1671629793.014,533,110122,62449
211735,14563.806662358837,1671629793.014,532,110147,62439
211735,14563.813518261957,1671629793.014,532,110147,62439
211736,14563.820374165078,1671629793.014,531,110195,62473
211736,14563.827230068198,1671629793.014,531,110195,62473
211737,14563.834085971319,1671629793.014,531,110132,62472
211737,14563.84094187444,1671629793.014,531,110132,62472
211738,14563.84779777756,1671629793.014,531,110211,62483
211738,14563.85465368068,1671629793.014,531,110211,62483
211739,14563.861509583801,1671629793.014,530,110139,62470
211739,14563.868365486922,1671629793.014,530,110139,62470
211740,14563.88941925568,1671629793.105,531,110239,62492
211740,14563.89680483378,1671629793.105,531,110239,62492
211741,14563.904190411879,1671629793.105,531,110175,62493
211741,14563.911575989978,1671629793.105,531,110175,62493
211742,14563.918961568077,1671629793.105,533,110163,62487
211742,14563.926347146176,1671629793.105,533,110163,62487
211743,14563.933732724276,1671629793.105,532,110152,62487
211743,14563.941118302375,1671629793.105,532,110152,62487
211744,14563.948503880474,1671629793.105,532,110178,62496
211744,14563.955889458573,1671629793.105,532,110178,62496
211745,14563.963275036673,1671629793.105,532,110213,62506
211745,14563.970660614772,1671629793.105,532,110213,62506
211746,14563.978046192871,1671629793.205,530,110183,62512
211746,14563.98543177097,1671629793.205,530,110183,62512
211747,14563.99281734907,1671629793.205,532,110171,62502
211747,14564.000202927169,1671629793.205,532,110171,62502
211748,14564.007588505268,1671629793.205,532,110212,62501
211748,14564.014974083368,1671629793.205,532,110212,62501
211749,14564.022359661467,1671629793.205,532,110271,62518
211749,14564.029745239566,1671629793.205,532,110271,62518
211750,14564.048067198735,1671629793.205,533,110273,62553
211750,14564.055797502731,1671629793.205,533,110273,62553
211751,14564.063527806728,1671629793.205,533,110153,62521
211751,14564.071258110724,1671629793.205,533,110153,62521
211752,14564.07898841472,1671629793.299,533,110232,62542
211752,14564.086718718716,1671629793.299,533,110232,62542
211753,14564.094449022712,1671629793.299,533,110242,62557
211753,14564.102179326708,1671629793.299,533,110242,62557
211754,14564.109909630704,1671629793.299,530,110253,62554
211754,14564.1176399347,1671629793.299,530,110253,62554
211755,14564.125370238697,1671629793.299,531,110336,62566
211755,14564.133100542693,1671629793.299,531,110336,62566
211756,14564.140830846689,1671629793.299,531,110317,62558
211756,14564.148561150685,1671629793.299,531,110317,62558
211757,14564.156291454681,1671629793.299,532,110278,62580
211757,14564.164021758677,1671629793.299,532,110278,62580
211758,14564.171752062673,1671629793.398,532,110317,62597
211758,14564.17948236667,1671629793.398,532,110317,62597
211759,14564.187212670666,1671629793.398,531,110319,62588
211759,14564.194942974662,1671629793.398,531,110319,62588
211760,14564.20772463601,1671629793.398,533,110206,62570
211760,14564.21534374575,1671629793.398,533,110206,62570
211761,14564.222962855489,1671629793.398,531,110208,62568
211761,14564.230581965228,1671629793.398,531,110208,62568
211762,14564.238201074968,1671629793.398,532,110153,62561
211762,14564.245820184708,1671629793.398,532,110153,62561
211763,14564.253439294447,1671629793.398,531,110212,62552
211763,14564.261058404187,1671629793.398,531,110212,62552
211764,14564.268677513926,1671629793.489,531,110206,62553
211764,14564.276296623666,1671629793.489,531,110206,62553
211765,14564.283915733406,1671629793.489,531,110184,62566
211765,14564.291534843145,1671629793.489,531,110184,62566
211766,14564.299153952885,1671629793.489,532,110133,62543
211766,14564.306773062624,1671629793.489,532,110133,62543
211767,14564.314392172364,1671629793.489,532,110182,62561
211767,14564.322011282104,1671629793.489,532,110182,62561
211768,14564.329630391843,1671629793.489,532,110213,62569
211768,14564.337249501583,1671629793.489,532,110213,62569
211769,14564.344868611322,1671629793.489,531,110150,62572
211769,14564.352487721062,1671629793.489,531,110150,62572
211770,14564.364762982126,1671629793.576,531,110029,62547
211770,14564.371915680724,1671629793.576,531,110029,62547
211771,14564.379068379321,1671629793.576,530,110084,62542
211771,14564.386221077919,1671629793.576,530,110084,62542
211772,14564.393373776516,1671629793.576,531,109977,62537
211772,14564.400526475114,1671629793.576,531,109977,62537
211773,14564.407679173712,1671629793.576,532,110067,62546
211773,14564.41483187231,1671629793.576,532,110067,62546
211774,14564.421984570907,1671629793.576,532,110026,62549
211774,14564.429137269504,1671629793.576,532,110026,62549
211775,14564.436289968102,1671629793.576,533,109974,62519
211775,14564.4434426667,1671629793.576,533,109974,62519
211776,14564.450595365297,1671629793.674,532,110034,62544
211776,14564.457748063895,1671629793.674,532,110034,62544
211777,14564.464900762492,1671629793.674,532,109907,62505
211777,14564.47205346109,1671629793.674,532,109907,62505
211778,14564.479206159687,1671629793.674,532,109916,62515
211778,14564.486358858285,1671629793.674,532,109916,62515
211779,14564.493511556882,1671629793.674,529,110008,62529
211779,14564.50066425548,1671629793.674,529,110008,62529
211780,14564.517499036965,1671629793.674,531,109872,62503
211780,14564.5251056066,1671629793.674,531,109872,62503
211781,14564.532712176237,1671629793.674,530,109936,62526
211781,14564.540318745872,1671629793.674,530,109936,62526
211782,14564.547925315508,1671629793.769,532,109958,62533
211782,14564.555531885144,1671629793.769,532,109958,62533
211783,14564.56313845478,1671629793.769,532,109932,62522
211783,14564.570745024415,1671629793.769,532,109932,62522
211784,14564.578351594051,1671629793.769,533,109879,62515
211784,14564.585958163687,1671629793.769,533,109879,62515
211785,14564.593564733323,1671629793.769,531,109909,62512
211785,14564.601171302958,1671629793.769,531,109909,62512
211786,14564.608777872594,1671629793.769,530,109913,62506
211786,14564.61638444223,1671629793.769,530,109913,62506
211787,14564.623991011866,1671629793.769,530,109866,62520
211787,14564.631597581501,1671629793.769,530,109866,62520
211788,14564.639204151137,1671629793.856,530,109921,62511
211788,14564.646810720773,1671629793.856,530,109921,62511
211789,14564.654417290409,1671629793.856,531,109975,62518
211789,14564.662023860044,1671629793.856,531,109975,62518
211790,14564.673235010434,1671629793.856,532,109939,62520
211790,14564.680212571762,1671629793.856,532,109939,62520
211791,14564.68719013309,1671629793.856,533,109907,62520
211791,14564.694167694419,1671629793.856,533,109907,62520
211792,14564.701145255747,1671629793.856,532,109887,62517
211792,14564.708122817075,1671629793.856,532,109887,62517
211793,14564.715100378404,1671629793.856,532,109845,62512
211793,14564.722077939732,1671629793.856,532,109845,62512
211794,14564.72905550106,1671629793.959,533,109881,62524
211794,14564.736033062389,1671629793.959,533,109881,62524
211795,14564.743010623717,1671629793.959,533,109917,62549
211795,14564.749988185045,1671629793.959,533,109917,62549
211796,14564.756965746374,1671629793.959,531,109943,62558
211796,14564.763943307702,1671629793.959,531,109943,62558
211797,14564.77092086903,1671629793.959,532,109865,62558
211797,14564.777898430359,1671629793.959,532,109865,62558
211798,14564.784875991687,1671629793.959,531,109891,62544
211798,14564.791853553015,1671629793.959,531,109891,62544
211799,14564.798831114344,1671629793.959,533,109869,62543
211799,14564.805808675672,1671629793.959,533,109869,62543
211800,14564.835725835686,1671629794.047,532,109918,62569
211800,14564.843774964094,1671629794.047,532,109918,62569
211801,14564.851824092502,1671629794.047,532,109901,62566
211801,14564.85987322091,1671629794.047,532,109901,62566
211802,14564.867922349318,1671629794.047,531,109920,62572
211802,14564.875971477726,1671629794.047,531,109920,62572
211803,14564.884020606134,1671629794.047,529,109969,62579
211803,14564.892069734542,1671629794.047,529,109969,62579
211804,14564.90011886295,1671629794.047,528,109998,62589
211804,14564.908167991358,1671629794.047,528,109998,62589
211805,14564.916217119766,1671629794.047,530,109962,62595
211805,14564.924266248174,1671629794.047,530,109962,62595
211806,14564.932315376582,1671629794.138,530,109984,62603
211806,14564.94036450499,1671629794.138,530,109984,62603
211807,14564.948413633398,1671629794.138,531,109962,62612
211807,14564.956462761806,1671629794.138,531,109962,62612
211808,14564.964511890214,1671629794.138,531,110010,62606
211808,14564.972561018621,1671629794.138,531,110010,62606
211809,14564.98061014703,1671629794.138,531,109974,62610
211809,14564.988659275437,1671629794.138,531,109974,62610
211810,14564.983316800786,1671629794.138,530,110023,62608
211810,14564.990396713358,1671629794.138,530,110023,62608
211811,14564.99747662593,1671629794.138,530,109905,62614
211811,14565.0045565385,1671629794.138,530,109905,62614
211812,14565.011636451072,1671629794.242,531,109943,62641
211812,14565.018716363644,1671629794.242,531,109943,62641
211813,14565.025796276215,1671629794.242,531,109937,62631
211813,14565.032876188787,1671629794.242,531,109937,62631
211814,14565.039956101358,1671629794.242,531,109968,62628
211814,14565.04703601393,1671629794.242,531,109968,62628
211815,14565.054115926501,1671629794.242,531,110074,62664
211815,14565.061195839073,1671629794.242,531,110074,62664
211816,14565.068275751644,1671629794.242,533,110016,62655
211816,14565.075355664216,1671629794.242,533,110016,62655
211817,14565.082435576787,1671629794.242,531,110063,62650
211817,14565.089515489359,1671629794.242,531,110063,62650
211818,14565.09659540193,1671629794.328,529,110063,62677
211818,14565.103675314502,1671629794.328,529,110063,62677
211819,14565.110755227073,1671629794.328,531,110022,62687
211819,14565.117835139645,1671629794.328,531,110022,62687
211820,14565.146670740283,1671629794.328,531,110024,62664
211820,14565.153786353552,1671629794.328,531,110024,62664
211821,14565.160901966821,1671629794.328,531,110118,62704
211821,14565.16801758009,1671629794.328,531,110118,62704
211822,14565.17513319336,1671629794.328,532,110194,62733
211822,14565.182248806628,1671629794.328,532,110194,62733
211823,14565.189364419897,1671629794.328,534,110059,62698
211823,14565.196480033166,1671629794.328,534,110059,62698
211824,14565.203595646435,1671629794.427,532,110129,62720
211824,14565.210711259704,1671629794.427,532,110129,62720
211825,14565.217826872973,1671629794.427,533,110029,62660
211825,14565.224942486242,1671629794.427,533,110029,62660
211826,14565.232058099511,1671629794.427,531,110003,62660
211826,14565.23917371278,1671629794.427,531,110003,62660
211827,14565.246289326049,1671629794.427,529,109982,62668
211827,14565.253404939318,1671629794.427,529,109982,62668
211828,14565.260520552587,1671629794.427,530,109975,62654
211828,14565.267636165856,1671629794.427,530,109975,62654
211829,14565.274751779125,1671629794.427,531,109916,62642
211829,14565.281867392394,1671629794.427,531,109916,62642
211830,14565.303887526514,1671629794.523,531,109963,62666
211830,14565.311657166574,1671629794.523,531,109963,62666
211831,14565.319426806635,1671629794.523,532,109941,62683
211831,14565.327196446695,1671629794.523,532,109941,62683
211832,14565.334966086755,1671629794.523,532,110007,62681
211832,14565.342735726816,1671629794.523,532,110007,62681
211833,14565.350505366876,1671629794.523,532,109889,62665
211833,14565.358275006936,1671629794.523,532,109889,62665
211834,14565.366044646997,1671629794.523,531,109850,62670
211834,14565.373814287057,1671629794.523,531,109850,62670
211835,14565.381583927117,1671629794.523,531,109877,62658
211835,14565.389353567178,1671629794.523,531,109877,62658
211836,14565.397123207238,1671629794.631,530,109841,62647
211836,14565.404892847298,1671629794.631,530,109841,62647
211837,14565.412662487359,1671629794.631,533,109784,62630
211837,14565.42043212742,1671629794.631,533,109784,62630
211838,14565.42820176748,1671629794.631,531,109735,62624
211838,14565.43597140754,1671629794.631,531,109735,62624
211839,14565.4437410476,1671629794.631,531,109798,62644
211839,14565.45151068766,1671629794.631,531,109798,62644
211840,14565.472126255716,1671629794.631,531,109762,62632
211840,14565.480532241503,1671629794.631,531,109762,62632
211841,14565.48893822729,1671629794.631,532,109801,62632
211841,14565.497344213078,1671629794.631,532,109801,62632
211842,14565.505750198865,1671629794.711,532,109771,62643
211842,14565.514156184652,1671629794.711,532,109771,62643
211843,14565.52256217044,1671629794.711,530,109719,62625
211843,14565.530968156227,1671629794.711,530,109719,62625
211844,14565.539374142014,1671629794.711,530,109777,62661
211844,14565.547780127801,1671629794.711,530,109777,62661
211845,14565.556186113588,1671629794.711,531,109730,62626
211845,14565.564592099376,1671629794.711,531,109730,62626
211846,14565.572998085163,1671629794.711,530,109795,62650
211846,14565.58140407095,1671629794.711,530,109795,62650
211847,14565.589810056737,1671629794.711,531,109648,62629
211847,14565.598216042525,1671629794.711,531,109648,62629
211848,14565.606622028312,1671629794.797,532,109708,62648
211848,14565.6150280141,1671629794.797,532,109708,62648
211849,14565.623433999886,1671629794.797,530,109748,62636
211849,14565.631839985674,1671629794.797,530,109748,62636
211850,14565.614046862447,1671629794.797,531,109716,62640
211850,14565.620613497504,1671629794.797,531,109716,62640
211851,14565.62718013256,1671629794.797,529,109716,62670
211851,14565.633746767617,1671629794.797,529,109716,62670
211852,14565.640313402673,1671629794.797,529,109706,62644
211852,14565.64688003773,1671629794.797,529,109706,62644
211853,14565.653446672786,1671629794.797,531,109700,62666
211853,14565.660013307843,1671629794.797,531,109700,62666
211854,14565.6665799429,1671629794.895,529,109762,62662
211854,14565.673146577956,1671629794.895,529,109762,62662
211855,14565.679713213012,1671629794.895,531,109626,62639
211855,14565.686279848069,1671629794.895,531,109626,62639
211856,14565.692846483125,1671629794.895,534,109693,62650
211856,14565.699413118182,1671629794.895,534,109693,62650
211857,14565.705979753238,1671629794.895,531,109706,62672
211857,14565.712546388295,1671629794.895,531,109706,62672
211858,14565.719113023351,1671629794.895,529,109707,62660
211858,14565.725679658408,1671629794.895,529,109707,62660
211859,14565.732246293464,1671629794.895,531,109749,62672
211859,14565.738812928521,1671629794.895,531,109749,62672
211860,14565.771010835118,1671629794.992,531,109694,62647
211860,14565.778674339008,1671629794.992,531,109694,62647
211861,14565.786337842897,1671629794.992,530,109687,62661
211861,14565.794001346787,1671629794.992,530,109687,62661
211862,14565.801664850676,1671629794.992,531,109721,62657
211862,14565.809328354566,1671629794.992,531,109721,62657
211863,14565.816991858455,1671629794.992,531,109785,62686
211863,14565.824655362345,1671629794.992,531,109785,62686
211864,14565.832318866234,1671629794.992,532,109746,62671
211864,14565.839982370124,1671629794.992,532,109746,62671
211865,14565.847645874013,1671629794.992,530,109813,62703
211865,14565.855309377903,1671629794.992,530,109813,62703
211866,14565.862972881792,1671629795.07,531,109761,62700
211866,14565.870636385682,1671629795.07,531,109761,62700
211867,14565.878299889571,1671629795.07,530,109842,62697
211867,14565.88596339346,1671629795.07,530,109842,62697
211868,14565.89362689735,1671629795.07,529,109863,62719
211868,14565.90129040124,1671629795.07,529,109863,62719
211869,14565.90895390513,1671629795.07,529,109792,62727
211869,14565.916617409019,1671629795.07,529,109792,62727
211870,14565.918428111905,1671629795.07,531,109849,62720
211870,14565.924636408725,1671629795.07,531,109849,62720
211871,14565.930844705545,1671629795.07,532,109817,62710
211871,14565.937053002364,1671629795.07,532,109817,62710
211872,14565.943261299184,1671629795.159,531,109808,62704
211872,14565.949469596004,1671629795.159,531,109808,62704
211873,14565.955677892824,1671629795.159,531,109881,62738
211873,14565.961886189643,1671629795.159,531,109881,62738
211874,14565.968094486463,1671629795.159,531,109741,62725
211874,14565.974302783283,1671629795.159,531,109741,62725
211875,14565.980511080103,1671629795.159,531,109874,62746
211875,14565.986719376922,1671629795.159,531,109874,62746
211876,14565.992927673742,1671629795.159,530,109865,62741
211876,14565.999135970562,1671629795.159,530,109865,62741
211877,14566.005344267382,1671629795.159,530,109872,62746
211877,14566.011552564201,1671629795.159,530,109872,62746
211878,14566.017760861021,1671629795.259,530,109943,62783
211878,14566.02396915784,1671629795.259,530,109943,62783
211879,14566.03017745466,1671629795.259,532,109848,62790
211879,14566.03638575148,1671629795.259,532,109848,62790
211880,14566.06825304824,1671629795.259,531,109850,62804
211880,14566.07579711996,1671629795.259,531,109850,62804
211881,14566.08334119168,1671629795.259,532,109855,62778
211881,14566.090885263398,1671629795.259,532,109855,62778
211882,14566.098429335118,1671629795.259,531,109900,62803
211882,14566.105973406837,1671629795.259,531,109900,62803
211883,14566.113517478556,1671629795.259,530,109958,62787
211883,14566.121061550275,1671629795.259,530,109958,62787
211884,14566.128605621994,1671629795.352,530,109924,62798
211884,14566.136149693713,1671629795.352,530,109924,62798
211885,14566.143693765433,1671629795.352,530,110022,62826
211885,14566.151237837152,1671629795.352,530,110022,62826
211886,14566.15878190887,1671629795.352,531,110016,62827
211886,14566.16632598059,1671629795.352,531,110016,62827
211887,14566.17387005231,1671629795.352,531,109963,62817
211887,14566.181414124028,1671629795.352,531,109963,62817
211888,14566.188958195748,1671629795.352,533,109950,62801
211888,14566.196502267467,1671629795.352,533,109950,62801
211889,14566.204046339186,1671629795.352,532,110023,62808
211889,14566.211590410905,1671629795.352,532,110023,62808
211890,14566.227704300605,1671629795.442,531,110033,62846
211890,14566.23498322551,1671629795.442,531,110033,62846
211891,14566.242262150414,1671629795.442,531,110041,62842
211891,14566.249541075318,1671629795.442,531,110041,62842
211892,14566.256820000222,1671629795.442,530,109951,62824
211892,14566.264098925127,1671629795.442,530,109951,62824
211893,14566.271377850031,1671629795.442,530,109973,62837
211893,14566.278656774935,1671629795.442,530,109973,62837
211894,14566.28593569984,1671629795.442,531,110057,62851
211894,14566.293214624744,1671629795.442,531,110057,62851
211895,14566.300493549648,1671629795.442,532,110036,62836
211895,14566.307772474553,1671629795.442,532,110036,62836
211896,14566.315051399457,1671629795.535,533,110002,62825
211896,14566.322330324361,1671629795.535,533,110002,62825
211897,14566.329609249266,1671629795.535,532,109948,62834
211897,14566.33688817417,1671629795.535,532,109948,62834
211898,14566.344167099074,1671629795.535,531,109948,62817
211898,14566.351446023978,1671629795.535,531,109948,62817
211899,14566.358724948883,1671629795.535,531,109982,62831
211899,14566.366003873787,1671629795.535,531,109982,62831
211900,14566.379821926013,1671629795.535,530,109962,62819
211900,14566.387065445351,1671629795.535,530,109962,62819
211901,14566.39430896469,1671629795.535,531,109961,62864
211901,14566.401552484027,1671629795.535,531,109961,62864
211902,14566.408796003365,1671629795.621,530,109956,62855
211902,14566.416039522703,1671629795.621,530,109956,62855
211903,14566.42328304204,1671629795.621,532,109840,62851
211903,14566.430526561378,1671629795.621,532,109840,62851
211904,14566.437770080716,1671629795.621,531,109977,62845
211904,14566.445013600054,1671629795.621,531,109977,62845
211905,14566.452257119392,1671629795.621,531,109885,62838
211905,14566.45950063873,1671629795.621,531,109885,62838
211906,14566.466744158068,1671629795.621,532,109831,62839
211906,14566.473987677406,1671629795.621,532,109831,62839
211907,14566.481231196743,1671629795.621,529,109860,62820
211907,14566.488474716081,1671629795.621,529,109860,62820
211908,14566.49571823542,1671629795.725,529,109881,62849
211908,14566.502961754757,1671629795.725,529,109881,62849
211909,14566.510205274095,1671629795.725,529,109865,62850
211909,14566.517448793433,1671629795.725,529,109865,62850
211910,14566.531575641655,1671629795.725,531,109786,62828
211910,14566.5392583387,1671629795.725,531,109786,62828
211911,14566.546941035745,1671629795.725,530,109847,62841
211911,14566.55462373279,1671629795.725,530,109847,62841
211912,14566.562306429836,1671629795.725,532,109783,62850
211912,14566.569989126881,1671629795.725,532,109783,62850
211913,14566.577671823927,1671629795.725,531,109887,62841
211913,14566.585354520972,1671629795.725,531,109887,62841
211914,14566.593037218017,1671629795.814,531,109814,62840
211914,14566.600719915063,1671629795.814,531,109814,62840
211915,14566.608402612108,1671629795.814,532,109778,62837
211915,14566.616085309153,1671629795.814,532,109778,62837
211916,14566.623768006199,1671629795.814,531,109732,62836
211916,14566.631450703244,1671629795.814,531,109732,62836
211917,14566.63913340029,1671629795.814,530,109776,62838
211917,14566.646816097335,1671629795.814,530,109776,62838
211918,14566.65449879438,1671629795.814,530,109679,62824
211918,14566.662181491425,1671629795.814,530,109679,62824
211919,14566.66986418847,1671629795.814,532,109723,62819
211919,14566.677546885516,1671629795.814,532,109723,62819
211920,14566.689679184015,1671629795.907,530,109778,62841
211920,14566.696697041305,1671629795.907,530,109778,62841
211921,14566.703714898595,1671629795.907,532,109829,62839
211921,14566.710732755884,1671629795.907,532,109829,62839
211922,14566.717750613174,1671629795.907,532,109702,62844
211922,14566.724768470463,1671629795.907,532,109702,62844
211923,14566.731786327753,1671629795.907,533,109748,62856
211923,14566.738804185043,1671629795.907,533,109748,62856
211924,14566.745822042332,1671629795.907,527,109903,62864
211924,14566.752839899622,1671629795.907,527,109903,62864
211925,14566.759857756912,1671629795.907,529,109847,62854
211925,14566.766875614201,1671629795.907,529,109847,62854
211926,14566.77389347149,1671629796.001,530,109780,62866
211926,14566.78091132878,1671629796.001,530,109780,62866
211927,14566.78792918607,1671629796.001,530,109794,62858
211927,14566.79494704336,1671629796.001,530,109794,62858
211928,14566.80196490065,1671629796.001,531,109897,62883
211928,14566.808982757939,1671629796.001,531,109897,62883
211929,14566.816000615228,1671629796.001,532,109877,62878
211929,14566.823018472518,1671629796.001,532,109877,62878
211930,14566.845868136066,1671629796.001,533,109848,62868
211930,14566.853246246115,1671629796.001,533,109848,62868
211931,14566.860624356164,1671629796.001,531,109839,62881
211931,14566.868002466214,1671629796.001,531,109839,62881
211932,14566.875380576263,1671629796.101,531,109844,62881
211932,14566.882758686312,1671629796.101,531,109844,62881
211933,14566.89013679636,1671629796.101,531,109877,62871
211933,14566.89751490641,1671629796.101,531,109877,62871
211934,14566.904893016459,1671629796.101,532,109871,62889
211934,14566.912271126508,1671629796.101,532,109871,62889
211935,14566.919649236557,1671629796.101,532,109785,62900
211935,14566.927027346606,1671629796.101,532,109785,62900
211936,14566.934405456655,1671629796.101,534,109810,62869
211936,14566.941783566705,1671629796.101,534,109810,62869
211937,14566.949161676754,1671629796.101,533,109773,62875
211937,14566.956539786803,1671629796.101,533,109773,62875
211938,14566.963917896852,1671629796.195,532,109953,62899
211938,14566.971296006901,1671629796.195,532,109953,62899
211939,14566.97867411695,1671629796.195,531,109895,62898
211939,14566.986052227,1671629796.195,531,109895,62898
211940,14567.008647838922,1671629796.195,532,109853,62901
211940,14567.016110463643,1671629796.195,532,109853,62901
211941,14567.023573088363,1671629796.195,531,109903,62913
211941,14567.031035713084,1671629796.195,531,109903,62913
211942,14567.038498337804,1671629796.195,530,110036,62941
211942,14567.045960962525,1671629796.195,530,110036,62941
211943,14567.053423587246,1671629796.195,532,109877,62910
211943,14567.060886211966,1671629796.195,532,109877,62910
211944,14567.068348836687,1671629796.29,531,109968,62933
211944,14567.075811461407,1671629796.29,531,109968,62933
211945,14567.083274086128,1671629796.29,533,110002,62955
211945,14567.090736710848,1671629796.29,533,110002,62955
211946,14567.098199335569,1671629796.29,533,109940,62942
211946,14567.10566196029,1671629796.29,533,109940,62942
211947,14567.11312458501,1671629796.29,532,110046,62948
211947,14567.12058720973,1671629796.29,532,110046,62948
211948,14567.128049834451,1671629796.29,532,109971,62932
211948,14567.135512459172,1671629796.29,532,109971,62932
211949,14567.142975083892,1671629796.29,532,109969,62942
211949,14567.150437708613,1671629796.29,532,109969,62942
211950,14567.166276237738,1671629796.385,530,110007,62969
211950,14567.173717168413,1671629796.385,530,110007,62969
211951,14567.181158099087,1671629796.385,532,110034,62976
211951,14567.188599029761,1671629796.385,532,110034,62976
211952,14567.196039960436,1671629796.385,533,109989,62944
211952,14567.20348089111,1671629796.385,533,109989,62944
211953,14567.210921821785,1671629796.385,532,110077,62985
211953,14567.21836275246,1671629796.385,532,110077,62985
211954,14567.225803683134,1671629796.385,532,110105,62959
211954,14567.233244613808,1671629796.385,532,110105,62959
211955,14567.240685544482,1671629796.385,533,110088,62978
211955,14567.248126475157,1671629796.385,533,110088,62978
211956,14567.255567405831,1671629796.476,531,110172,63016
211956,14567.263008336506,1671629796.476,531,110172,63016
211957,14567.27044926718,1671629796.476,532,110103,62981
211957,14567.277890197855,1671629796.476,532,110103,62981
211958,14567.285331128529,1671629796.476,532,110054,62969
211958,14567.292772059203,1671629796.476,532,110054,62969
211959,14567.300212989878,1671629796.476,531,110079,62976
211959,14567.307653920552,1671629796.476,531,110079,62976
211960,14567.321182077612,1671629796.476,531,110082,62985
211960,14567.328313541086,1671629796.476,531,110082,62985
211961,14567.335445004559,1671629796.476,532,110069,62965
211961,14567.342576468032,1671629796.476,532,110069,62965
211962,14567.349707931506,1671629796.572,532,110075,62979
211962,14567.356839394979,1671629796.572,532,110075,62979
211963,14567.363970858452,1671629796.572,532,110013,62993
211963,14567.371102321926,1671629796.572,532,110013,62993
211964,14567.378233785399,1671629796.572,531,110113,62991
211964,14567.385365248872,1671629796.572,531,110113,62991
211965,14567.392496712346,1671629796.572,533,110086,63004
211965,14567.399628175819,1671629796.572,533,110086,63004
211966,14567.406759639292,1671629796.572,530,109987,62973
211966,14567.413891102766,1671629796.572,530,109987,62973
211967,14567.42102256624,1671629796.572,531,109947,62984
211967,14567.428154029712,1671629796.572,531,109947,62984
211968,14567.435285493186,1671629796.656,532,109996,62994
211968,14567.44241695666,1671629796.656,532,109996,62994
211969,14567.449548420132,1671629796.656,529,110056,63006
211969,14567.456679883606,1671629796.656,529,110056,63006
211970,14567.475416766754,1671629796.656,532,109953,63007
211970,14567.482260023044,1671629796.656,532,109953,63007
211971,14567.489103279333,1671629796.656,532,110029,63000
211971,14567.495946535622,1671629796.656,532,110029,63000
211972,14567.502789791912,1671629796.656,531,109975,62997
211972,14567.509633048201,1671629796.656,531,109975,62997
211973,14567.51647630449,1671629796.656,531,109944,62999
211973,14567.52331956078,1671629796.656,531,109944,62999
211974,14567.53016281707,1671629796.745,531,109960,63002
211974,14567.537006073358,1671629796.745,531,109960,63002
211975,14567.543849329648,1671629796.745,531,110083,63009
211975,14567.550692585937,1671629796.745,531,110083,63009
211976,14567.557535842227,1671629796.745,531,110101,63030
211976,14567.564379098516,1671629796.745,531,110101,63030
211977,14567.571222354805,1671629796.745,532,110107,63017
211977,14567.578065611095,1671629796.745,532,110107,63017
211978,14567.584908867384,1671629796.745,532,110004,63014
211978,14567.591752123673,1671629796.745,532,110004,63014
211979,14567.598595379963,1671629796.745,533,110012,63005
211979,14567.605438636252,1671629796.745,533,110012,63005
211980,14567.619844572853,1671629796.858,530,110032,63024
211980,14567.626754581675,1671629796.858,530,110032,63024
211981,14567.633664590498,1671629796.858,530,110031,63002
211981,14567.64057459932,1671629796.858,530,110031,63002
211982,14567.647484608142,1671629796.858,532,110013,63013
211982,14567.654394616964,1671629796.858,532,110013,63013
211983,14567.661304625786,1671629796.858,531,110074,63038
211983,14567.668214634608,1671629796.858,531,110074,63038
211984,14567.67512464343,1671629796.858,532,110022,63011
211984,14567.682034652253,1671629796.858,532,110022,63011
211985,14567.688944661075,1671629796.858,533,110141,63067
211985,14567.695854669897,1671629796.858,533,110141,63067
211986,14567.70276467872,1671629796.944,534,110056,63031
211986,14567.709674687541,1671629796.944,534,110056,63031
211987,14567.716584696363,1671629796.944,532,110074,63022
211987,14567.723494705186,1671629796.944,532,110074,63022
211988,14567.730404714008,1671629796.944,532,110035,63035
211988,14567.73731472283,1671629796.944,532,110035,63035
211989,14567.744224731652,1671629796.944,532,109999,63034
211989,14567.751134740474,1671629796.944,532,109999,63034
211990,14567.790636098349,1671629796.944,530,110118,63032
211990,14567.79748511231,1671629796.944,530,110118,63032
211991,14567.804334126273,1671629796.944,530,109966,63023
211991,14567.811183140235,1671629796.944,530,109966,63023
211992,14567.818032154197,1671629797.03,531,110158,63070
211992,14567.824881168159,1671629797.03,531,110158,63070
211993,14567.83173018212,1671629797.03,532,110082,63062
211993,14567.838579196083,1671629797.03,532,110082,63062
211994,14567.845428210045,1671629797.03,534,110025,63023
211994,14567.852277224007,1671629797.03,534,110025,63023
211995,14567.859126237969,1671629797.03,532,110079,63057
211995,14567.86597525193,1671629797.03,532,110079,63057
211996,14567.872824265893,1671629797.03,531,110113,63067
211996,14567.879673279855,1671629797.03,531,110113,63067
211997,14567.886522293817,1671629797.03,530,110184,63057
211997,14567.893371307779,1671629797.03,530,110184,63057
211998,14567.90022032174,1671629797.144,532,110114,63077
211998,14567.907069335703,1671629797.144,532,110114,63077
211999,14567.913918349665,1671629797.144,533,110084,63080
211999,14567.920767363627,1671629797.144,533,110084,63080
212000,14567.944639599851,1671629797.144,533,110127,63069
212000,14567.95289894479,1671629797.144,533,110127,63069
212001,14567.961158289729,1671629797.144,533,110133,63087
212001,14567.969417634667,1671629797.144,533,110133,63087
212002,14567.977676979606,1671629797.144,532,110225,63068
212002,14567.985936324545,1671629797.144,532,110225,63068
212003,14567.994195669484,1671629797.144,532,110152,63078
212003,14568.002455014423,1671629797.144,532,110152,63078
212004,14568.010714359361,1671629797.227,532,110240,63092
212004,14568.0189737043,1671629797.227,532,110240,63092
212005,14568.027233049239,1671629797.227,531,110261,63119
212005,14568.035492394178,1671629797.227,531,110261,63119
212006,14568.043751739116,1671629797.227,533,110192,63079
212006,14568.052011084055,1671629797.227,533,110192,63079
212007,14568.060270428994,1671629797.227,531,110229,63090
212007,14568.068529773933,1671629797.227,531,110229,63090
212008,14568.076789118872,1671629797.227,532,110175,63081
212008,14568.08504846381,1671629797.227,532,110175,63081
212009,14568.09330780875,1671629797.227,531,110184,63108
212009,14568.101567153688,1671629797.227,531,110184,63108
212010,14568.101773005177,1671629797.316,533,110292,63115
212010,14568.108280549093,1671629797.316,533,110292,63115
212011,14568.11478809301,1671629797.316,531,110220,63106
212011,14568.121295636925,1671629797.316,531,110220,63106
212012,14568.127803180842,1671629797.316,532,110342,63109
212012,14568.134310724758,1671629797.316,532,110342,63109
212013,14568.140818268674,1671629797.316,531,110325,63135
212013,14568.14732581259,1671629797.316,531,110325,63135
212014,14568.153833356506,1671629797.316,531,110289,63123
212014,14568.160340900422,1671629797.316,531,110289,63123
212015,14568.166848444338,1671629797.316,532,110414,63134
212015,14568.173355988254,1671629797.316,532,110414,63134
212016,14568.17986353217,1671629797.405,532,110267,63121
212016,14568.186371076086,1671629797.405,532,110267,63121
212017,14568.192878620002,1671629797.405,531,110375,63131
212017,14568.199386163918,1671629797.405,531,110375,63131
212018,14568.205893707835,1671629797.405,534,110293,63109
212018,14568.21240125175,1671629797.405,534,110293,63109
212019,14568.218908795667,1671629797.405,532,110400,63160
212019,14568.225416339583,1671629797.405,532,110400,63160
212020,14568.250723749987,1671629797.405,533,110380,63134
212020,14568.25764659717,1671629797.405,533,110380,63134
212021,14568.264569444354,1671629797.405,530,110414,63160
212021,14568.271492291538,1671629797.405,530,110414,63160
212022,14568.278415138722,1671629797.494,531,110387,63144
212022,14568.285337985906,1671629797.494,531,110387,63144
212023,14568.29226083309,1671629797.494,529,110437,63148
212023,14568.299183680274,1671629797.494,529,110437,63148
212024,14568.306106527458,1671629797.494,532,110378,63105
212024,14568.313029374642,1671629797.494,532,110378,63105
212025,14568.319952221826,1671629797.494,533,110346,63122
212025,14568.32687506901,1671629797.494,533,110346,63122
212026,14568.333797916193,1671629797.494,532,110318,63121
212026,14568.340720763377,1671629797.494,532,110318,63121
212027,14568.347643610561,1671629797.494,533,110251,63113
212027,14568.354566457745,1671629797.494,533,110251,63113
212028,14568.361489304929,1671629797.599,531,110363,63121
212028,14568.368412152113,1671629797.599,531,110363,63121
212029,14568.375334999297,1671629797.599,531,110215,63131
212029,14568.38225784648,1671629797.599,531,110215,63131
212030,14568.405472139819,1671629797.599,531,110357,63146
212030,14568.41330857944,1671629797.599,531,110357,63146
212031,14568.421145019061,1671629797.599,530,110394,63136
212031,14568.428981458683,1671629797.599,530,110394,63136
212032,14568.436817898304,1671629797.599,533,110280,63136
212032,14568.444654337925,1671629797.599,533,110280,63136
212033,14568.452490777547,1671629797.599,531,110297,63128
212033,14568.460327217168,1671629797.599,531,110297,63128
212034,14568.46816365679,1671629797.695,533,110292,63135
212034,14568.47600009641,1671629797.695,533,110292,63135
212035,14568.483836536032,1671629797.695,531,110229,63139
212035,14568.491672975653,1671629797.695,531,110229,63139
212036,14568.499509415275,1671629797.695,532,110233,63132
212036,14568.507345854896,1671629797.695,532,110233,63132
212037,14568.515182294517,1671629797.695,531,110277,63118
212037,14568.523018734139,1671629797.695,531,110277,63118
212038,14568.53085517376,1671629797.695,530,110298,63145
212038,14568.538691613381,1671629797.695,530,110298,63145
212039,14568.546528053002,1671629797.695,531,110342,63152
212039,14568.554364492624,1671629797.695,531,110342,63152
212040,14568.570739168212,1671629797.779,530,110291,63133
212040,14568.578211225531,1671629797.779,530,110291,63133
212041,14568.58568328285,1671629797.779,530,110311,63129
212041,14568.59315534017,1671629797.779,530,110311,63129
212042,14568.600627397489,1671629797.779,532,110187,63123
212042,14568.608099454808,1671629797.779,532,110187,63123
212043,14568.615571512128,1671629797.779,532,110289,63142
212043,14568.623043569447,1671629797.779,532,110289,63142
212044,14568.630515626766,1671629797.779,531,110343,63139
212044,14568.637987684086,1671629797.779,531,110343,63139
212045,14568.645459741405,1671629797.779,530,110292,63150
212045,14568.652931798724,1671629797.779,530,110292,63150
212046,14568.660403856044,1671629797.876,531,110325,63153
212046,14568.667875913363,1671629797.876,531,110325,63153
212047,14568.675347970682,1671629797.876,531,110350,63171
212047,14568.682820028002,1671629797.876,531,110350,63171
212048,14568.69029208532,1671629797.876,531,110336,63158
212048,14568.69776414264,1671629797.876,531,110336,63158
212049,14568.70523619996,1671629797.876,532,110305,63159
212049,14568.712708257279,1671629797.876,532,110305,63159
212050,14568.719619368658,1671629797.876,533,110291,63161
212050,14568.727124840594,1671629797.876,533,110291,63161
212051,14568.73463031253,1671629797.876,532,110381,63159
212051,14568.742135784467,1671629797.876,532,110381,63159
212052,14568.749641256403,1671629797.978,531,110383,63165
212052,14568.75714672834,1671629797.978,531,110383,63165
212053,14568.764652200276,1671629797.978,532,110272,63140
212053,14568.772157672212,1671629797.978,532,110272,63140
212054,14568.779663144149,1671629797.978,531,110292,63151
212054,14568.787168616085,1671629797.978,531,110292,63151
212055,14568.794674088022,1671629797.978,530,110372,63153
212055,14568.802179559958,1671629797.978,530,110372,63153
212056,14568.809685031894,1671629797.978,532,110396,63141
212056,14568.81719050383,1671629797.978,532,110396,63141
212057,14568.824695975767,1671629797.978,531,110404,63164
212057,14568.832201447703,1671629797.978,531,110404,63164
212058,14568.83970691964,1671629798.066,533,110429,63179
212058,14568.847212391576,1671629798.066,533,110429,63179
212059,14568.854717863513,1671629798.066,531,110345,63157
212059,14568.862223335449,1671629798.066,531,110345,63157
212060,14568.883540406398,1671629798.066,532,110432,63152
212060,14568.890736961852,1671629798.066,532,110432,63152
212061,14568.897933517306,1671629798.066,532,110369,63138
212061,14568.90513007276,1671629798.066,532,110369,63138
212062,14568.912326628215,1671629798.066,532,110467,63174
212062,14568.91952318367,1671629798.066,532,110467,63174
212063,14568.926719739124,1671629798.066,530,110410,63154
212063,14568.933916294578,1671629798.066,530,110410,63154
212064,14568.941112850032,1671629798.166,531,110415,63152
212064,14568.948309405487,1671629798.166,531,110415,63152
212065,14568.955505960941,1671629798.166,530,110462,63154
212065,14568.962702516395,1671629798.166,530,110462,63154
212066,14568.96989907185,1671629798.166,533,110457,63170
212066,14568.977095627304,1671629798.166,533,110457,63170
212067,14568.984292182759,1671629798.166,532,110393,63163
212067,14568.991488738213,1671629798.166,532,110393,63163
212068,14568.998685293667,1671629798.166,533,110429,63153
212068,14569.005881849122,1671629798.166,533,110429,63153
212069,14569.013078404576,1671629798.166,531,110416,63153
212069,14569.02027496003,1671629798.166,531,110416,63153
212070,14569.042706178736,1671629798.244,531,110458,63159
212070,14569.05051601653,1671629798.244,531,110458,63159
212071,14569.058325854325,1671629798.244,531,110491,63147
212071,14569.06613569212,1671629798.244,531,110491,63147
212072,14569.073945529914,1671629798.244,530,110608,63196
212072,14569.081755367708,1671629798.244,530,110608,63196
212073,14569.089565205502,1671629798.244,530,110597,63199
212073,14569.097375043297,1671629798.244,530,110597,63199
212074,14569.105184881091,1671629798.244,533,110538,63182
212074,14569.112994718886,1671629798.244,533,110538,63182
212075,14569.12080455668,1671629798.244,533,110527,63162
212075,14569.128614394474,1671629798.244,533,110527,63162
212076,14569.136424232269,1671629798.351,532,110531,63170
212076,14569.144234070063,1671629798.351,532,110531,63170
212077,14569.152043907858,1671629798.351,531,110530,63187
212077,14569.159853745652,1671629798.351,531,110530,63187
212078,14569.167663583446,1671629798.351,531,110559,63166
212078,14569.17547342124,1671629798.351,531,110559,63166
212079,14569.183283259035,1671629798.351,531,110600,63176
212079,14569.19109309683,1671629798.351,531,110600,63176
212080,14569.192357798654,1671629798.351,533,110617,63181
212080,14569.200552630651,1671629798.351,533,110617,63181
212081,14569.208747462648,1671629798.351,531,110564,63184
212081,14569.216942294644,1671629798.351,531,110564,63184
212082,14569.225137126641,1671629798.456,533,110701,63210
212082,14569.233331958638,1671629798.456,533,110701,63210
212083,14569.241526790634,1671629798.456,533,110622,63192
212083,14569.249721622631,1671629798.456,533,110622,63192
212084,14569.257916454628,1671629798.456,533,110577,63170
212084,14569.266111286624,1671629798.456,533,110577,63170
212085,14569.274306118621,1671629798.456,532,110666,63198
212085,14569.282500950618,1671629798.456,532,110666,63198
212086,14569.290695782614,1671629798.456,531,110718,63223
212086,14569.298890614611,1671629798.456,531,110718,63223
212087,14569.307085446608,1671629798.456,532,110657,63227
212087,14569.315280278604,1671629798.456,532,110657,63227
212088,14569.323475110601,1671629798.53,532,110757,63202
212088,14569.331669942598,1671629798.53,532,110757,63202
212089,14569.339864774594,1671629798.53,532,110645,63189
212089,14569.348059606591,1671629798.53,532,110645,63189
212090,14569.355725056314,1671629798.53,532,110698,63219
212090,14569.36221230408,1671629798.53,532,110698,63219
212091,14569.368699551847,1671629798.53,533,110789,63246
212091,14569.375186799614,1671629798.53,533,110789,63246
212092,14569.381674047381,1671629798.53,533,110691,63217
212092,14569.388161295148,1671629798.53,533,110691,63217
212093,14569.394648542915,1671629798.53,533,110631,63187
212093,14569.401135790682,1671629798.53,533,110631,63187
212094,14569.407623038449,1671629798.619,530,110616,63182
212094,14569.414110286216,1671629798.619,530,110616,63182
212095,14569.420597533983,1671629798.619,532,110631,63168
212095,14569.42708478175,1671629798.619,532,110631,63168
212096,14569.433572029517,1671629798.619,532,110616,63181
212096,14569.440059277284,1671629798.619,532,110616,63181
212097,14569.44654652505,1671629798.619,532,110541,63166
212097,14569.453033772817,1671629798.619,532,110541,63166
212098,14569.459521020584,1671629798.619,533,110675,63181
